898.04809570	2.90196085
898.04809570	2.90196085
898.05212402	2.90196085
898.05609131	2.90196085
898.06030273	2.92156863
898.06030273	2.90196085
898.06439209	2.90196085
898.06835938	2.90196085
898.07250977	2.90196085
898.07250977	2.92156863
898.07666016	2.92156863
898.08074951	2.90196085
898.08074951	2.90196085
898.08477783	2.90196085
898.08892822	2.90196085
898.09320068	2.90196085
898.09320068	2.90196085
898.09722900	2.90196085
898.10131836	2.90196085
898.10540771	2.90196085
898.10540771	2.90196085
898.10937500	2.90196085
898.11346436	2.90196085
898.11761475	2.92156863
898.11761475	2.90196085
898.12164307	2.90196085
898.12573242	2.90196085
898.12573242	2.90196085
898.12988281	2.90196085
898.13403320	2.90196085
898.13812256	2.90196085
898.13812256	2.90196085
898.14215088	2.90196085
898.14624023	2.90196085
898.15039063	2.90196085
898.15039063	2.90196085
898.15447998	2.90196085
898.15863037	2.92156863
898.16253662	2.92156863
898.16674805	2.90196085
898.17083740	2.90196085
898.17083740	2.90196085
898.17486572	2.90196085
898.17913818	2.90196085
898.18310547	2.90196085
898.18310547	2.90196085
898.18731689	2.90196085
898.19140625	2.90196085
898.19555664	2.90196085
898.19555664	2.90196085
898.19958496	2.90196085
898.20373535	2.90196085
898.20782471	2.90196085
898.21185303	2.90196085
898.21600342	2.90196085
898.21600342	2.92156863
898.22009277	2.90196085
898.22418213	2.90196085
898.22827148	2.90196085
898.22827148	2.90196085
898.23229980	2.90196085
898.23645020	2.92156863
898.24053955	2.92156863
898.24053955	2.92156863
898.24462891	2.90196085
898.24865723	2.90196085
898.25280762	2.92156863
898.25695801	2.92156863
898.26098633	2.92156863
898.26098633	2.92156863
898.26513672	2.90196085
898.26916504	2.92156863
898.27331543	2.90196085
898.27331543	2.90196085
898.27740479	2.92156863
898.28149414	2.92156863
898.28552246	2.92156863
898.28552246	2.92156863
898.28961182	2.92156863
898.29376221	2.90196085
898.29785156	2.92156863
898.30194092	2.92156863
898.30615234	2.92156863
898.30615234	2.92156863
898.31011963	2.92156863
898.31427002	2.90196085
898.31842041	2.90196085
898.31842041	2.92156863
898.32238770	2.90196085
898.32653809	2.90196085
898.33068848	2.90196085
898.33068848	2.90196085
898.33477783	2.90196085
898.33874512	2.92156863
898.34289551	2.90196085
898.34698486	2.90196085
898.35107422	2.90196085
898.35107422	2.90196085
898.35510254	2.92156863
898.35919189	2.90196085
898.36340332	2.90196085
898.36340332	2.90196085
898.36755371	2.90196085
898.37164307	2.90196085
898.37567139	2.90196085
898.37567139	2.90196085
898.37976074	2.90196085
898.38391113	2.90196085
898.38806152	2.90196085
898.39215088	2.90196085
898.39611816	2.90196085
898.39611816	2.90196085
898.40026855	2.90196085
898.40435791	2.90196085
898.40856934	2.90196085
898.40856934	2.90196085
898.41253662	2.90196085
898.41662598	2.90196085
898.42077637	2.90196085
898.42077637	2.90196085
898.42492676	2.90196085
898.42889404	2.90196085
898.43316650	2.90196085
898.43713379	2.90196085
898.44128418	2.90196085
898.44128418	2.90196085
898.44525146	2.90196085
898.44934082	2.90196085
898.45355225	2.90196085
898.45355225	2.92156863
898.45764160	2.92156863
898.46179199	2.92156863
898.46575928	2.90196085
898.46575928	2.90196085
898.46997070	2.90196085
898.47418213	2.90196085
898.47418213	2.90196085
898.47814941	2.90196085
898.48211670	2.92156863
898.48632813	2.90196085
898.48632813	2.90196085
898.49041748	2.90196085
898.49450684	2.90196085
898.49853516	2.90196085
898.49853516	2.90196085
898.50262451	2.90196085
898.50677490	2.90196085
898.51092529	2.90196085
898.51092529	2.90196085
898.51501465	2.90196085
898.51916504	2.90196085
898.51916504	2.86274505
898.52313232	2.90196085
898.52728271	2.92156863
898.53143311	2.90196085
898.53143311	2.90196085
898.53552246	2.90196085
898.53955078	2.90196085
898.54364014	2.90196085
898.54364014	2.88235283
898.54779053	2.90196085
898.55194092	2.90196085
898.55590820	2.90196085
898.55590820	2.92156863
898.56005859	2.90196085
898.56408691	2.90196085
898.56408691	2.90196085
898.56823730	2.90196085
898.57226563	2.90196085
898.57635498	2.90196085
898.57635498	2.90196085
898.58050537	2.90196085
898.58459473	2.90196085
898.58874512	2.90196085
898.58874512	2.90196085
898.59277344	3.17647052
898.59692383	3.70588231
898.60101318	2.92156863
898.60101318	2.90196085
898.60516357	2.92156863
898.60925293	2.90196085
898.60925293	2.90196085
898.61328125	2.90196085
898.61749268	2.90196085
898.62145996	2.90196085
898.62145996	2.92156863
898.62548828	2.92156863
898.62963867	2.90196085
898.63372803	2.90196085
898.63372803	2.90196085
898.63787842	2.90196085
898.64202881	2.90196085
898.64611816	2.90196085
898.65008545	2.90196085
898.65429688	2.92156863
898.65429688	2.90196085
898.65844727	2.92156863
898.66241455	2.90196085
898.66650391	2.90196085
898.66650391	2.90196085
898.67065430	4.17647076
898.67480469	2.92156863
898.67895508	2.92156863
898.67895508	2.90196085
898.68280029	2.90196085
898.68713379	2.90196085
898.69116211	2.90196085
898.69525146	2.88235283
898.69934082	3.07843137
898.69934082	4.17647076
898.70343018	2.90196085
898.70751953	2.90196085
898.71166992	2.90196085
898.71166992	2.90196085
898.71569824	2.90196085
898.71984863	2.88235283
898.72387695	2.90196085
898.72387695	2.90196085
898.72802734	2.90196085
898.73211670	2.90196085
898.73620605	2.90196085
898.74017334	3.07843137
898.74432373	4.29411745
898.74432373	4.13725471
898.74847412	2.90196085
898.75256348	2.90196085
898.75665283	2.90196085
898.75665283	2.90196085
898.76074219	2.90196085
898.76489258	2.90196085
898.76904297	2.90196085
898.76904297	2.86274505
898.77313232	2.98039222
898.77716064	3.56862736
898.78131104	2.90196085
898.78540039	2.90196085
898.78936768	2.96078420
898.78936768	4.31372547
898.79351807	4.15686274
898.79766846	3.98039222
898.80181885	2.90196085
898.80181885	2.90196085
898.80578613	2.90196085
898.80987549	2.90196085
898.81414795	2.90196085
898.81414795	3.98039222
898.81817627	3.01960778
898.82232666	2.88235283
898.82629395	3.29411769
898.83044434	2.90196085
898.83453369	2.88235283
898.83453369	3.21568632
898.83880615	4.29411745
898.84265137	4.25490189
898.84680176	4.25490189
898.84680176	4.25490189
898.85095215	4.19607830
898.85498047	4.31372547
898.85919189	4.23529434
898.85919189	3.54901958
898.86315918	3.72549009
898.86730957	4.33333349
898.87139893	4.31372547
898.87554932	4.11764717
898.87969971	2.90196085
898.87969971	2.90196085
898.88378906	2.88235283
898.88781738	2.94117641
898.89196777	3.07843137
898.89196777	4.29411745
898.89593506	4.35294104
898.90020752	4.05882359
898.90423584	2.86274505
898.90423584	2.90196085
898.90832520	4.33333349
898.91247559	4.27450991
898.91644287	2.88235283
898.92053223	4.25490189
898.92462158	4.21568632
898.92462158	2.90196085
898.92877197	2.90196085
898.93273926	2.90196085
898.93695068	2.88235283
898.93695068	2.88235283
898.94104004	4.31372547
898.94512939	4.01960802
898.94921875	2.90196085
898.94921875	2.90196085
898.95324707	2.90196085
898.95733643	2.88235283
898.95733643	2.90196085
898.96148682	2.90196085
898.96563721	2.90196085
898.96966553	2.90196085
898.96966553	2.90196085
898.97375488	3.05882359
898.97784424	4.13725471
898.98205566	2.92156863
898.98205566	2.90196085
898.98620605	2.90196085
898.99011230	4.33333349
898.99426270	4.19607830
898.99426270	2.90196085
898.99847412	2.92156863
899.00256348	2.90196085
899.00256348	2.90196085
899.00653076	2.90196085
899.01062012	2.90196085
899.01477051	2.88235283
899.01477051	2.90196085
899.01892090	2.90196085
899.02288818	2.88235283
899.02716064	2.88235283
899.02716064	2.88235283
899.03112793	2.90196085
899.03527832	2.88235283
899.03942871	2.92156863
899.03942871	4.37254906
899.04339600	4.27450991
899.04754639	2.90196085
899.04754639	2.90196085
899.05163574	2.90196085
899.05572510	2.90196085
899.05987549	2.90196085
899.05987549	4.37254906
899.06390381	4.17647076
899.06805420	2.92156863
899.07214355	2.90196085
899.07214355	2.90196085
899.07611084	2.90196085
899.08020020	2.88235283
899.08435059	2.90196085
899.08435059	2.92156863
899.08850098	2.90196085
899.09259033	2.90196085
899.09259033	2.90196085
899.09655762	2.90196085
899.10070801	2.90196085
899.10485840	2.92156863
899.10485840	3.56862736
899.10888672	3.19607854
899.11303711	2.88235283
899.11706543	2.88235283
899.11706543	2.90196085
899.12121582	2.90196085
899.12536621	2.90196085
899.12951660	3.70588231
899.12951660	4.31372547
899.13354492	4.15686274
899.13763428	2.92156863
899.13763428	2.90196085
899.14172363	2.90196085
899.14587402	2.90196085
899.14984131	2.88235283
899.14984131	2.90196085
899.15411377	2.90196085
899.15814209	2.90196085
899.16223145	2.90196085
899.16223145	2.90196085
899.16632080	2.90196085
899.17047119	3.03921580
899.17456055	4.00000000
899.17864990	2.90196085
899.18273926	2.90196085
899.18273926	2.90196085
899.18682861	2.90196085
899.19079590	2.90196085
899.19494629	2.88235283
899.19494629	3.05882359
899.19915771	4.29411745
899.20312500	2.90196085
899.20721436	2.90196085
899.20721436	2.90196085
899.21136475	2.90196085
899.21551514	2.90196085
899.21966553	2.90196085
899.22363281	2.88235283
899.22778320	2.90196085
899.22778320	2.88235283
899.23193359	2.90196085
899.23602295	2.90196085
899.24011230	2.90196085
899.24011230	2.90196085
899.24414063	2.90196085
899.24835205	2.88235283
899.25231934	3.00000000
899.25231934	3.17647052
899.25634766	2.90196085
899.26049805	2.88235283
899.26464844	2.90196085
899.26873779	2.90196085
899.27288818	2.90196085
899.27288818	2.90196085
899.27685547	2.90196085
899.28100586	2.90196085
899.28515625	2.90196085
899.28515625	2.88235283
899.28930664	3.05882359
899.29333496	2.88235283
899.29742432	2.90196085
899.29742432	2.90196085
899.30151367	2.90196085
899.30560303	2.90196085
899.30975342	2.90196085
899.31365967	2.90196085
899.31787109	2.90196085
899.31787109	2.90196085
899.32202148	2.88235283
899.32611084	2.86274505
899.33013916	2.90196085
899.33013916	2.88235283
899.33422852	2.90196085
899.33837891	2.90196085
899.34252930	2.90196085
899.34252930	2.90196085
899.34649658	2.88235283
899.35070801	3.00000000
899.35479736	2.90196085
899.35894775	2.90196085
899.36303711	2.88235283
899.36303711	2.88235283
899.36712646	2.88235283
899.37115479	2.88235283
899.37530518	3.17647052
899.37530518	4.25490189
899.37939453	4.13725471
899.38336182	2.90196085
899.38757324	2.90196085
899.38757324	2.90196085
899.39172363	2.90196085
899.39581299	2.90196085
899.39990234	2.88235283
899.40393066	2.86274505
899.40820313	3.03921580
899.40820313	2.90196085
899.41229248	2.90196085
899.41625977	2.88235283
899.42028809	2.90196085
899.42028809	2.90196085
899.42437744	2.90196085
899.42852783	2.86274505
899.43273926	2.94117641
899.43273926	3.13725495
899.43670654	3.09803915
899.44073486	2.90196085
899.44073486	2.90196085
899.44488525	2.90196085
899.44903564	2.90196085
899.45324707	2.90196085
899.45324707	2.90196085
899.45715332	2.90196085
899.46130371	2.88235283
899.46545410	2.86274505
899.46545410	2.90196085
899.46960449	2.90196085
899.47357178	2.90196085
899.47766113	2.90196085
899.47766113	2.90196085
899.48181152	2.90196085
899.48590088	2.90196085
899.48590088	2.90196085
899.48986816	2.90196085
899.49414063	2.90196085
899.49816895	2.90196085
899.49816895	2.90196085
899.50225830	2.90196085
899.50634766	2.90196085
899.51043701	2.90196085
899.51043701	2.90196085
899.51458740	2.90196085
899.51873779	2.90196085
899.52282715	2.90196085
899.52282715	2.90196085
899.52679443	2.90196085
899.53094482	2.90196085
899.53094482	2.90196085
899.53503418	2.90196085
899.53918457	2.90196085
899.54327393	2.90196085
899.54327393	2.90196085
899.54730225	2.90196085
899.55139160	2.90196085
899.55548096	2.90196085
899.55548096	2.90196085
899.55963135	2.90196085
899.56365967	2.90196085
899.56774902	2.90196085
899.56774902	2.90196085
899.57189941	2.90196085
899.57604980	2.90196085
899.57604980	2.90196085
899.58020020	2.90196085
899.58416748	2.90196085
899.58837891	2.90196085
899.58837891	2.90196085
899.59234619	2.90196085
899.59655762	2.90196085
899.60052490	2.90196085
899.60052490	2.90196085
899.60467529	2.90196085
899.60864258	2.90196085
899.61285400	2.90196085
899.61682129	2.90196085
899.62109375	2.90196085
899.62109375	2.90196085
899.62506104	2.90196085
899.62921143	2.88235283
899.63336182	2.90196085
899.63336182	2.90196085
899.63739014	2.90196085
899.64141846	2.90196085
899.64556885	2.90196085
899.64556885	2.90196085
899.64971924	2.90196085
899.65380859	2.90196085
899.65783691	2.90196085
899.66192627	2.90196085
899.66601563	2.90196085
899.66601563	2.88235283
899.67022705	2.90196085
899.67419434	2.90196085
899.67834473	2.90196085
899.67834473	2.90196085
899.68249512	2.90196085
899.68652344	2.90196085
899.69055176	2.88235283
899.69055176	2.88235283
899.69476318	2.88235283
899.69885254	2.88235283
899.70300293	2.90196085
899.70709229	2.90196085
899.71112061	2.90196085
899.71112061	2.90196085
899.71527100	2.90196085
899.71936035	2.90196085
899.72351074	2.90196085
899.72351074	2.90196085
899.72747803	2.88235283
899.73168945	2.90196085
899.73577881	2.88235283
899.73577881	2.90196085
899.73986816	2.90196085
899.74395752	2.90196085
899.74810791	2.90196085
899.75213623	2.90196085
899.75622559	2.90196085
899.75622559	2.90196085
899.76031494	2.90196085
899.76440430	2.90196085
899.76855469	2.88235283
899.76855469	2.86274505
899.77270508	2.86274505
899.77679443	2.88235283
899.78082275	2.88235283
899.78082275	2.86274505
899.78491211	3.01960778
899.78906250	3.58823538
899.79315186	4.25490189
899.79711914	4.23529434
899.80126953	4.23529434
899.80126953	4.25490189
899.80535889	4.25490189
899.80950928	4.25490189
899.81365967	4.25490189
899.81365967	4.23529434
899.81762695	4.19607830
899.82171631	4.15686274
899.82586670	4.21568632
899.82586670	4.21568632
899.83001709	3.96078420
899.83410645	3.29411769
899.83813477	2.90196085
899.84228516	2.88235283
899.84637451	2.86274505
899.84637451	2.86274505
899.85040283	2.88235283
899.85455322	2.90196085
899.85870361	2.90196085
899.85870361	2.88235283
899.86279297	2.88235283
899.86688232	2.86274505
899.87097168	2.88235283
899.87097168	2.90196085
899.87506104	2.90196085
899.87902832	2.90196085
899.88323975	2.90196085
899.88720703	2.90196085
899.89135742	2.90196085
899.89135742	2.90196085
899.89550781	2.90196085
899.89959717	2.90196085
899.90374756	2.90196085
899.90374756	2.90196085
899.90771484	2.90196085
899.91180420	2.90196085
899.91601563	2.90196085
899.91601563	2.90196085
899.92010498	2.90196085
899.92413330	2.90196085
899.92413330	2.90196085
899.92828369	2.90196085
899.93237305	2.90196085
899.93652344	2.90196085
899.93652344	2.90196085
899.94049072	2.90196085
899.94458008	2.90196085
899.94873047	2.90196085
899.94873047	2.90196085
899.95288086	2.90196085
899.95690918	2.90196085
899.96112061	2.90196085
899.96112061	2.90196085
899.96514893	2.90196085
899.96923828	2.90196085
899.96923828	2.90196085
899.97338867	2.90196085
899.97741699	2.90196085
899.98156738	2.90196085
899.98156738	2.90196085
899.98565674	2.90196085
899.98974609	2.90196085
899.99389648	2.90196085
899.99389648	2.90196085
899.99792480	2.90196085
900.00201416	2.90196085
900.00610352	2.90196085
900.00610352	2.90196085
900.01025391	2.90196085
900.01428223	2.90196085
900.01428223	2.92156863
900.01843262	2.90196085
900.02258301	2.90196085
900.02667236	2.90196085
900.02667236	2.90196085
900.03070068	2.90196085
900.03472900	2.90196085
900.03894043	2.90196085
900.03894043	2.90196085
900.04302979	2.90196085
900.04718018	2.90196085
900.05114746	2.90196085
900.05114746	2.90196085
900.05523682	2.90196085
900.05932617	2.90196085
900.05932617	2.90196085
900.06341553	2.90196085
900.06750488	2.90196085
900.07159424	2.90196085
900.07159424	2.90196085
900.07574463	2.90196085
900.07989502	2.92156863
900.08404541	2.90196085
900.08404541	2.90196085
900.08813477	2.90196085
900.09216309	2.90196085
900.09625244	2.90196085
900.09625244	2.90196085
900.10034180	2.90196085
900.10437012	2.90196085
900.10437012	2.90196085
900.10852051	2.90196085
900.11254883	2.90196085
900.11669922	2.90196085
900.11669922	2.90196085
900.12066650	2.92156863
900.12481689	2.92156863
900.12915039	2.90196085
900.12915039	2.90196085
900.13311768	2.92156863
900.13726807	2.92156863
900.14123535	2.90196085
900.14538574	2.90196085
900.14953613	2.90196085
900.14953613	2.92156863
900.15368652	2.92156863
900.15765381	2.92156863
900.16180420	2.90196085
900.16180420	2.90196085
900.16595459	2.90196085
900.17004395	2.92156863
900.17419434	2.90196085
900.17419434	2.92156863
900.17810059	2.92156863
900.18231201	2.90196085
900.18646240	2.90196085
900.19055176	2.90196085
900.19451904	2.90196085
900.19451904	2.90196085
900.19860840	2.90196085
900.20281982	2.90196085
900.20690918	2.90196085
900.20690918	2.90196085
900.21093750	2.90196085
900.21520996	2.92156863
900.21917725	2.92156863
900.21917725	2.92156863
900.22332764	2.90196085
900.22741699	2.90196085
900.23138428	2.90196085
900.23559570	2.90196085
900.23962402	2.90196085
900.23962402	2.90196085
900.24371338	2.90196085
900.24780273	2.90196085
900.25189209	2.90196085
900.25189209	2.90196085
900.25598145	2.90196085
900.26013184	2.90196085
900.26428223	2.90196085
900.26428223	2.90196085
900.26824951	2.90196085
900.27246094	2.90196085
900.27655029	2.90196085
900.28057861	2.90196085
900.28460693	2.90196085
900.28460693	2.90196085
900.28881836	2.90196085
900.29290771	2.90196085
900.29705811	2.90196085
900.29705811	2.90196085
900.30114746	2.90196085
900.30511475	2.90196085
900.30926514	2.90196085
900.30926514	2.90196085
900.31335449	2.90196085
900.31750488	2.90196085
900.32147217	2.90196085
900.32568359	2.90196085
900.32977295	2.90196085
900.32977295	2.90196085
900.33392334	2.90196085
900.33789063	2.90196085
900.34216309	2.90196085
900.34216309	2.90196085
900.34619141	2.90196085
900.35028076	2.90196085
900.35443115	2.92156863
900.35443115	2.90196085
900.35839844	2.92156863
900.36248779	2.90196085
900.36663818	2.90196085
900.37078857	2.90196085
900.37475586	2.90196085
900.37475586	2.90196085
900.37890625	2.90196085
900.38299561	2.90196085
900.38714600	2.90196085
900.38714600	2.90196085
900.39117432	2.90196085
900.39532471	2.90196085
900.39941406	2.90196085
900.39941406	2.90196085
900.40356445	2.90196085
900.40771484	2.90196085
900.40771484	2.90196085
900.41168213	2.92156863
900.41577148	2.92156863
900.41998291	2.90196085
900.41998291	2.90196085
900.42401123	2.90196085
900.42810059	2.90196085
900.43212891	2.88235283
900.43212891	2.90196085
900.43627930	2.92156863
900.44042969	2.92156863
900.44445801	2.92156863
900.44445801	2.92156863
900.44854736	2.90196085
900.45257568	2.90196085
900.45257568	2.90196085
900.45672607	2.90196085
900.46075439	2.92156863
900.46484375	2.92156863
900.46484375	2.90196085
900.46899414	2.90196085
900.47314453	2.92156863
900.47723389	2.92156863
900.47723389	2.92156863
900.48132324	2.90196085
900.48535156	2.86274505
900.48950195	2.90196085
900.48950195	2.92156863
900.49365234	2.92156863
900.49774170	2.92156863
900.49774170	2.90196085
900.50177002	2.90196085
900.50585938	2.90196085
900.51000977	2.92156863
900.51000977	2.90196085
900.51416016	2.92156863
900.51812744	2.92156863
900.52227783	2.90196085
900.52227783	2.90196085
900.52642822	2.90196085
900.53057861	2.88235283
900.53460693	2.90196085
900.53460693	2.88235283
900.53863525	2.90196085
900.54278564	2.92156863
900.54278564	2.92156863
900.54693604	2.92156863
900.55102539	2.90196085
900.55511475	2.90196085
900.55511475	2.90196085
900.55914307	2.88235283
900.56329346	2.90196085
900.56738281	2.90196085
900.56738281	2.92156863
900.57135010	2.90196085
900.57543945	2.92156863
900.57958984	2.90196085
900.58374023	2.90196085
900.58789063	2.88235283
900.58789063	2.90196085
900.59185791	2.90196085
900.59600830	2.90196085
900.60028076	2.90196085
900.60028076	2.90196085
900.60430908	2.92156863
900.60827637	2.92156863
900.61236572	2.90196085
900.61236572	2.92156863
900.61651611	2.92156863
900.62066650	2.92156863
900.62475586	2.90196085
900.62866211	2.90196085
900.63287354	2.90196085
900.63287354	2.92156863
900.63702393	2.92156863
900.64111328	2.92156863
900.64514160	2.90196085
900.64514160	2.90196085
900.64916992	2.90196085
900.65338135	2.92156863
900.65747070	2.90196085
900.65747070	2.92156863
900.66156006	2.92156863
900.66564941	2.92156863
900.66979980	2.90196085
900.67388916	2.92156863
900.67797852	2.92156863
900.67797852	2.92156863
900.68218994	2.92156863
900.68615723	2.92156863
900.69018555	2.88235283
900.69018555	3.29411769
900.69433594	4.17647076
900.69836426	2.92156863
900.70251465	2.92156863
900.70251465	2.92156863
900.70660400	2.92156863
900.71075439	2.92156863
900.71472168	2.90196085
900.71887207	2.92156863
900.72302246	2.92156863
900.72302246	2.90196085
900.72717285	4.05882359
900.73120117	2.92156863
900.73529053	2.92156863
900.73529053	2.90196085
900.73937988	2.92156863
900.74346924	2.90196085
900.74774170	2.90196085
900.74774170	2.98039222
900.75158691	2.90196085
900.75573730	2.90196085
900.75988770	2.92156863
900.76397705	2.92156863
900.76812744	2.90196085
900.76812744	2.90196085
900.77209473	2.90196085
900.77624512	2.90196085
900.78033447	2.92156863
900.78033447	2.90196085
900.78436279	2.90196085
900.78857422	2.90196085
900.79266357	2.90196085
900.79266357	2.90196085
900.79675293	2.86274505
900.80084229	4.21568632
900.80493164	2.92156863
900.80902100	2.92156863
900.81304932	2.92156863
900.81304932	2.90196085
900.81726074	2.90196085
900.82135010	2.90196085
900.82537842	2.88235283
900.82537842	2.90196085
900.82946777	3.64705873
900.83361816	3.50980401
900.83770752	2.92156863
900.83770752	2.92156863
900.84173584	2.92156863
900.84582520	2.90196085
900.85003662	4.31372547
900.85412598	3.17647052
900.85827637	2.92156863
900.85827637	2.92156863
900.86224365	2.92156863
900.86633301	2.90196085
900.87048340	2.92156863
900.87048340	2.96078420
900.87451172	2.98039222
900.87860107	2.86274505
900.88269043	2.92156863
900.88269043	2.92156863
900.88690186	2.90196085
900.89099121	2.92156863
900.89099121	2.92156863
900.89514160	2.92156863
900.89910889	2.90196085
900.90325928	2.90196085
900.90325928	2.90196085
900.90734863	2.88235283
900.91143799	2.90196085
900.91552734	2.88235283
900.91552734	2.92156863
900.91961670	2.92156863
900.92376709	2.92156863
900.92785645	2.90196085
900.92785645	2.92156863
900.93194580	2.90196085
900.93615723	2.88235283
900.93615723	2.92156863
900.94012451	2.90196085
900.94421387	4.13725471
900.94836426	4.31372547
900.94836426	2.92156863
900.95245361	2.92156863
900.95654297	2.92156863
900.96069336	2.92156863
900.96069336	2.90196085
900.96466064	3.23529410
900.96881104	4.37254906
900.97290039	4.27450991
900.97290039	2.92156863
900.97705078	2.92156863
900.98114014	2.92156863
900.98114014	2.92156863
900.98510742	2.90196085
900.98919678	2.92156863
900.99334717	2.90196085
900.99334717	2.92156863
900.99743652	2.88235283
901.00146484	2.90196085
901.00561523	2.92156863
901.00561523	2.92156863
901.00976563	2.86274505
901.01385498	2.90196085
901.01806641	2.92156863
901.01806641	2.90196085
901.02215576	2.90196085
901.02612305	2.90196085
901.02612305	2.92156863
901.03027344	2.90196085
901.03436279	2.90196085
901.03851318	2.88235283
901.03851318	2.92156863
901.04241943	2.92156863
901.04656982	2.92156863
901.05072021	2.90196085
901.05072021	3.90196085
901.05480957	4.13725471
901.05883789	2.92156863
901.06311035	2.92156863
901.06311035	2.92156863
901.06713867	2.92156863
901.07122803	2.92156863
901.07122803	2.90196085
901.07519531	2.90196085
901.07934570	2.90196085
901.08343506	2.90196085
901.08343506	3.27450991
901.08764648	2.92156863
901.09161377	2.92156863
901.09570313	2.90196085
901.09570313	2.92156863
901.09985352	2.92156863
901.10394287	2.90196085
901.10809326	2.90196085
901.11206055	2.92156863
901.11621094	2.90196085
901.11621094	2.90196085
901.12030029	2.92156863
901.12451172	2.90196085
901.12860107	2.90196085
901.12860107	2.92156863
901.13256836	2.90196085
901.13677979	2.90196085
901.14086914	2.90196085
901.14086914	2.90196085
901.14483643	2.90196085
901.14916992	2.92156863
901.15313721	2.90196085
901.15722656	2.92156863
901.16137695	2.90196085
901.16137695	2.90196085
901.16528320	2.90196085
901.16943359	2.96078420
901.17358398	3.29411769
901.17358398	3.03921580
901.17767334	2.92156863
901.18170166	2.90196085
901.18591309	2.92156863
901.18591309	2.92156863
901.19000244	2.92156863
901.19415283	2.90196085
901.19824219	2.92156863
901.20220947	2.90196085
901.20635986	2.90196085
901.20635986	2.90196085
901.21051025	2.90196085
901.21459961	2.92156863
901.21875000	2.90196085
901.21875000	2.88235283
901.22271729	2.90196085
901.22680664	2.92156863
901.23089600	2.90196085
901.23089600	2.92156863
901.23510742	2.90196085
901.23907471	2.90196085
901.24322510	2.92156863
901.24737549	2.90196085
901.25152588	2.90196085
901.25152588	2.92156863
901.25549316	2.92156863
901.25964355	2.92156863
901.26373291	2.92156863
901.26373291	2.90196085
901.26788330	2.92156863
901.27185059	2.90196085
901.27612305	2.92156863
901.27612305	2.92156863
901.28009033	2.92156863
901.28417969	2.92156863
901.28833008	2.90196085
901.29229736	2.90196085
901.29644775	2.90196085
901.29644775	2.90196085
901.30059814	2.90196085
901.30474854	2.90196085
901.30889893	2.90196085
901.30889893	2.88235283
901.31286621	2.88235283
901.31695557	2.88235283
901.32110596	2.86274505
901.32110596	2.90196085
901.32525635	3.11764717
901.32922363	3.60784316
901.33331299	3.37254906
901.33752441	3.35294127
901.34161377	2.90196085
901.34161377	2.86274505
901.34558105	3.09803915
901.34973145	3.56862736
901.35382080	2.92156863
901.35382080	2.88235283
901.35797119	2.90196085
901.36206055	2.90196085
901.36608887	2.90196085
901.36608887	2.90196085
901.37030029	2.88235283
901.37438965	2.90196085
901.37438965	3.01960778
901.37847900	2.90196085
901.38250732	2.90196085
901.38659668	2.90196085
901.38659668	2.90196085
901.39074707	2.90196085
901.39489746	2.90196085
901.39898682	2.88235283
901.39898682	2.88235283
901.40313721	2.94117641
901.40710449	3.23529410
901.41131592	3.07843137
901.41131592	2.86274505
901.41522217	2.86274505
901.41937256	2.92156863
901.41937256	2.88235283
901.42352295	2.86274505
901.42767334	2.90196085
901.43176270	2.88235283
901.43176270	2.90196085
901.43572998	3.29411769
901.43981934	3.58823538
901.44396973	3.11764717
901.44396973	2.90196085
901.44812012	2.90196085
901.45214844	2.90196085
901.45623779	2.90196085
901.45623779	2.90196085
901.46032715	2.90196085
901.46447754	2.90196085
901.46447754	2.90196085
901.46856689	2.90196085
901.47265625	2.90196085
901.47674561	2.90196085
901.47674561	2.90196085
901.48083496	2.90196085
901.48504639	2.90196085
901.48913574	2.90196085
901.48913574	2.90196085
901.49310303	2.90196085
901.49725342	2.90196085
901.50146484	2.90196085
901.50146484	2.90196085
901.50543213	2.88235283
901.50952148	2.88235283
901.50952148	2.90196085
901.51367188	2.90196085
901.51776123	2.90196085
901.52191162	2.88235283
901.52191162	2.88235283
901.52587891	2.90196085
901.53015137	2.90196085
901.53417969	2.90196085
901.53417969	2.90196085
901.53826904	2.90196085
901.54235840	2.90196085
901.54632568	2.90196085
901.55053711	2.90196085
901.55462646	2.90196085
901.55462646	2.90196085
901.55865479	2.92156863
901.56268311	2.90196085
901.56689453	2.90196085
901.56689453	2.90196085
901.57098389	2.90196085
901.57513428	2.90196085
901.57922363	2.90196085
901.57922363	2.90196085
901.58319092	2.90196085
901.58734131	2.90196085
901.59155273	2.90196085
901.59552002	2.90196085
901.59967041	2.90196085
901.59967041	2.90196085
901.60375977	2.88235283
901.60784912	2.86274505
901.61206055	2.88235283
901.61206055	2.90196085
901.61608887	2.90196085
901.62005615	2.90196085
901.62414551	2.90196085
901.62414551	2.90196085
901.62835693	2.90196085
901.63250732	2.90196085
901.63647461	2.90196085
901.64056396	2.90196085
901.64471436	2.90196085
901.64471436	2.88235283
901.64886475	2.90196085
901.65283203	2.90196085
901.65710449	2.90196085
901.65710449	2.92156863
901.66101074	2.92156863
901.66522217	2.92156863
901.66931152	2.92156863
901.66931152	2.92156863
901.67333984	2.92156863
901.67749023	2.92156863
901.68164063	2.92156863
901.68560791	2.90196085
901.68969727	2.90196085
901.68969727	2.92156863
901.69384766	2.92156863
901.69799805	2.92156863
901.70208740	2.90196085
901.70208740	2.90196085
901.70605469	2.90196085
901.71020508	2.90196085
901.71441650	2.90196085
901.71441650	2.90196085
901.71850586	2.90196085
901.72265625	2.90196085
901.72662354	2.90196085
901.73071289	2.90196085
901.73486328	2.90196085
901.73486328	2.90196085
901.73895264	2.90196085
901.74304199	2.90196085
901.74707031	2.90196085
901.74707031	2.90196085
901.75122070	2.90196085
901.75537109	2.90196085
901.75946045	2.90196085
901.75946045	2.90196085
901.76348877	2.90196085
901.76757813	2.90196085
901.77172852	2.90196085
901.77575684	2.90196085
901.77990723	2.90196085
901.77990723	2.90196085
901.78405762	2.90196085
901.78814697	2.90196085
901.79223633	2.90196085
901.79223633	2.90196085
901.79626465	2.90196085
901.80041504	2.90196085
901.80450439	2.90196085
901.80450439	2.90196085
901.80859375	2.90196085
901.81274414	2.90196085
901.81689453	2.90196085
901.82092285	2.90196085
901.82501221	2.90196085
901.82501221	2.90196085
901.82916260	2.90196085
901.83312988	2.90196085
901.83734131	2.90196085
901.83734131	2.90196085
901.84136963	2.90196085
901.84552002	2.90196085
901.84960938	2.90196085
901.84960938	2.90196085
901.85357666	2.90196085
901.85778809	2.90196085
901.85778809	2.90196085
901.86187744	2.90196085
901.86584473	2.90196085
901.87011719	2.90196085
901.87011719	2.90196085
901.87414551	2.90196085
901.87829590	2.90196085
901.88244629	2.90196085
901.88244629	2.90196085
901.88641357	2.90196085
901.89056396	2.90196085
901.89465332	2.90196085
901.89465332	2.90196085
901.89874268	2.90196085
901.90295410	2.90196085
901.90295410	2.90196085
901.90692139	2.90196085
901.91101074	2.90196085
901.91516113	2.90196085
901.91516113	2.90196085
901.91925049	2.90196085
901.92321777	2.90196085
901.92730713	2.90196085
901.92730713	2.90196085
901.93139648	2.90196085
901.93560791	2.90196085
901.93975830	2.90196085
901.93975830	2.90196085
901.94372559	2.90196085
901.94787598	2.90196085
901.94787598	2.90196085
901.95196533	2.90196085
901.95611572	2.90196085
901.96008301	2.90196085
901.96008301	2.90196085
901.96417236	2.90196085
901.96832275	2.90196085
901.97241211	2.90196085
901.97241211	2.90196085
901.97644043	2.90196085
901.98052979	2.90196085
901.98474121	2.90196085
901.98474121	2.90196085
901.98883057	2.90196085
901.99298096	2.90196085
901.99298096	2.90196085
901.99713135	2.90196085
902.00109863	2.90196085
902.00518799	2.90196085
902.00518799	2.90196085
902.00939941	2.90196085
902.01336670	2.90196085
902.01751709	2.90196085
902.01751709	2.90196085
902.02166748	2.90196085
902.02581787	2.90196085
902.02978516	2.90196085
902.02978516	2.90196085
902.03393555	2.90196085
902.03802490	2.90196085
902.03802490	2.90196085
902.04217529	2.90196085
902.04614258	2.92156863
902.05023193	2.90196085
902.05023193	2.90196085
902.05432129	2.90196085
902.05847168	2.90196085
902.06262207	2.90196085
902.06262207	2.90196085
902.06658936	2.90196085
902.07061768	2.90196085
902.07489014	2.92156863
902.07897949	2.92156863
902.08306885	2.90196085
902.08306885	2.90196085
902.08709717	2.90196085
902.09124756	2.90196085
902.09533691	2.92156863
902.09533691	2.92156863
902.09942627	2.92156863
902.10351563	2.90196085
902.10760498	2.90196085
902.10760498	2.90196085
902.11175537	2.90196085
902.11584473	2.92156863
902.11981201	2.92156863
902.12414551	2.92156863
902.12811279	2.92156863
902.12811279	2.92156863
902.13214111	2.92156863
902.13623047	2.92156863
902.14038086	2.92156863
902.14038086	2.92156863
902.14447021	2.92156863
902.14862061	2.92156863
902.15277100	2.92156863
902.15277100	2.92156863
902.15673828	2.92156863
902.16088867	2.92156863
902.16503906	2.90196085
902.16912842	2.92156863
902.17321777	2.92156863
902.17321777	2.92156863
902.17724609	2.92156863
902.18139648	2.92156863
902.18554688	2.92156863
902.18554688	2.90196085
902.18939209	2.90196085
902.19354248	2.92156863
902.19769287	2.92156863
902.19769287	2.90196085
902.20184326	2.92156863
902.20599365	2.90196085
902.21008301	2.90196085
902.21411133	2.92156863
902.21826172	2.92156863
902.21826172	2.92156863
902.22235107	2.90196085
902.22637939	2.92156863
902.23052979	2.90196085
902.23052979	2.92156863
902.23461914	2.92156863
902.23870850	2.92156863
902.24285889	2.92156863
902.24285889	2.92156863
902.24688721	2.90196085
902.25103760	2.92156863
902.25506592	2.92156863
902.25921631	2.92156863
902.26336670	2.92156863
902.26336670	2.90196085
902.26733398	2.90196085
902.27142334	2.92156863
902.27563477	2.92156863
902.27563477	2.92156863
902.27972412	2.92156863
902.28369141	2.92156863
902.28790283	2.90196085
902.28790283	2.90196085
902.29199219	2.90196085
902.29614258	2.92156863
902.30010986	2.92156863
902.30419922	2.92156863
902.30841064	2.92156863
902.30841064	2.92156863
902.31243896	2.92156863
902.31652832	2.90196085
902.32055664	2.90196085
902.32055664	2.90196085
902.32470703	2.92156863
902.32885742	2.92156863
902.33294678	2.92156863
902.33294678	2.92156863
902.33709717	2.90196085
902.34106445	2.92156863
902.34106445	2.92156863
902.34521484	2.92156863
902.34930420	2.90196085
902.35351563	2.92156863
902.35351563	2.92156863
902.35742188	2.92156863
902.36157227	2.92156863
902.36566162	2.92156863
902.36566162	2.92156863
902.36981201	2.92156863
902.37384033	2.92156863
902.37799072	2.92156863
902.37799072	2.92156863
902.38208008	2.90196085
902.38629150	2.90196085
902.38629150	2.90196085
902.39019775	2.92156863
902.39434814	2.92156863
902.39843750	2.92156863
902.39843750	2.92156863
902.40258789	2.86274505
902.40661621	3.47058821
902.41070557	2.92156863
902.41070557	2.92156863
902.41485596	2.92156863
902.41906738	2.92156863
902.42309570	2.90196085
902.42309570	2.90196085
902.42706299	3.01960778
902.43115234	4.27450991
902.43115234	4.11764717
902.43530273	2.92156863
902.43945313	2.92156863
902.44360352	2.92156863
902.44360352	2.90196085
902.44757080	2.90196085
902.45172119	2.90196085
902.45587158	2.92156863
902.45587158	2.92156863
902.45983887	2.92156863
902.46411133	2.92156863
902.46807861	2.90196085
902.46807861	2.90196085
902.47222900	2.90196085
902.47631836	2.90196085
902.47631836	2.90196085
902.48028564	2.92156863
902.48437500	2.92156863
902.48858643	2.90196085
902.48858643	2.88235283
902.49261475	2.92156863
902.49670410	2.92156863
902.50085449	2.90196085
902.50085449	2.90196085
902.50494385	2.90196085
902.50909424	2.90196085
902.51324463	2.92156863
902.51721191	2.92156863
902.52142334	2.90196085
902.52142334	2.90196085
902.52551270	2.86274505
902.52966309	2.92156863
902.53381348	2.90196085
902.53381348	2.90196085
902.53778076	2.92156863
902.54187012	2.92156863
902.54602051	2.92156863
902.54602051	2.92156863
902.55010986	2.92156863
902.55407715	2.90196085
902.55822754	4.33333349
902.56237793	4.21568632
902.56646729	2.92156863
902.56646729	2.92156863
902.57049561	2.92156863
902.57464600	2.92156863
902.57879639	2.90196085
902.57879639	2.98039222
902.58288574	3.66666675
902.58691406	2.90196085
902.59112549	2.90196085
902.59112549	2.92156863
902.59515381	2.90196085
902.59918213	2.90196085
902.60339355	3.00000000
902.60736084	2.92156863
902.61151123	2.92156863
902.61151123	2.92156863
902.61560059	2.92156863
902.61975098	2.90196085
902.62384033	2.90196085
902.62384033	3.01960778
902.62780762	3.27450991
902.63195801	2.90196085
902.63623047	2.90196085
902.63623047	2.90196085
902.64013672	2.90196085
902.64422607	2.90196085
902.64837646	3.07843137
902.65258789	4.31372547
902.65667725	4.33333349
902.65667725	4.25490189
902.66064453	2.92156863
902.66479492	2.92156863
902.66894531	2.92156863
902.66894531	2.92156863
902.67297363	2.90196085
902.67706299	3.01960778
902.68103027	4.39215708
902.68103027	4.35294104
902.68530273	2.92156863
902.68933105	2.92156863
902.69348145	2.90196085
902.69750977	2.90196085
902.70166016	2.90196085
902.70166016	3.03921580
902.70581055	3.72549009
902.70983887	4.27450991
902.71405029	4.21568632
902.71405029	2.92156863
902.71807861	2.90196085
902.72216797	2.90196085
902.72625732	2.92156863
902.72625732	3.21568632
902.73028564	4.37254906
902.73437500	4.43137264
902.73846436	2.92156863
902.74267578	2.92156863
902.74676514	2.90196085
902.74676514	2.90196085
902.75079346	2.88235283
902.75482178	2.90196085
902.75891113	3.31372547
902.75891113	4.29411745
902.76306152	4.27450991
902.76708984	4.19607830
902.77117920	2.90196085
902.77117920	2.90196085
902.77532959	2.90196085
902.77947998	2.90196085
902.78356934	3.03921580
902.78759766	3.52941179
902.79174805	4.21568632
902.79174805	4.39215708
902.79589844	4.31372547
902.79998779	2.92156863
902.80407715	2.92156863
902.80407715	2.90196085
902.80810547	2.90196085
902.81225586	2.90196085
902.81634521	2.88235283
902.81634521	2.90196085
902.82031250	2.90196085
902.82446289	2.88235283
902.82446289	2.90196085
902.82861328	2.92156863
902.83270264	2.90196085
902.83685303	2.92156863
902.83685303	2.90196085
902.84082031	2.90196085
902.84509277	2.90196085
902.84912109	2.90196085
902.84912109	2.90196085
902.85327148	2.90196085
902.85723877	2.92156863
902.86138916	2.90196085
902.86138916	2.90196085
902.86547852	3.01960778
902.86956787	3.98039222
902.86956787	2.92156863
902.87365723	2.92156863
902.87768555	2.92156863
902.88177490	2.90196085
902.88177490	2.90196085
902.88592529	2.92156863
902.89007568	2.90196085
902.89410400	2.90196085
902.89410400	2.90196085
902.89819336	2.90196085
902.90234375	2.90196085
902.90649414	2.90196085
902.90649414	2.92156863
902.91046143	2.90196085
902.91461182	2.88235283
902.91461182	2.92156863
902.91876221	2.92156863
902.92291260	2.92156863
902.92700195	2.92156863
902.92700195	2.92156863
902.93109131	2.92156863
902.93511963	2.90196085
902.93914795	2.92156863
902.93914795	2.90196085
902.94323730	2.90196085
902.94732666	2.92156863
902.95147705	2.92156863
902.95147705	2.92156863
902.95556641	2.92156863
902.95971680	2.92156863
902.95971680	2.92156863
902.96374512	2.90196085
902.96783447	2.90196085
902.97210693	2.90196085
902.97210693	3.39215684
902.97613525	4.05882359
902.98022461	2.92156863
902.98431396	2.92156863
902.98431396	2.92156863
902.98834229	2.92156863
902.99243164	2.92156863
902.99664307	2.92156863
903.00054932	2.92156863
903.00463867	2.92156863
903.00463867	2.90196085
903.00885010	2.90196085
903.01293945	2.92156863
903.01708984	2.92156863
903.01708984	2.92156863
903.02111816	2.92156863
903.02520752	2.92156863
903.02935791	2.90196085
903.02935791	2.90196085
903.03338623	2.90196085
903.03753662	2.90196085
903.04162598	2.92156863
903.04577637	2.92156863
903.04986572	2.92156863
903.04986572	2.92156863
903.05383301	2.92156863
903.05810547	2.92156863
903.06213379	2.90196085
903.06213379	2.90196085
903.06622314	4.27450991
903.07037354	2.92156863
903.07440186	2.92156863
903.07440186	2.92156863
903.07849121	2.92156863
903.08264160	2.92156863
903.08679199	2.90196085
903.09075928	2.92156863
903.09484863	2.92156863
903.09484863	2.90196085
903.09899902	2.92156863
903.10314941	2.90196085
903.10729980	2.92156863
903.10729980	2.90196085
903.11120605	2.92156863
903.11535645	2.92156863
903.11950684	2.90196085
903.11950684	2.90196085
903.12353516	2.90196085
903.12750244	2.90196085
903.13177490	2.90196085
903.13586426	2.92156863
903.13995361	2.92156863
903.13995361	2.90196085
903.14410400	2.90196085
903.14807129	2.92156863
903.15222168	2.92156863
903.15222168	2.92156863
903.15637207	2.92156863
903.16046143	2.92156863
903.16448975	2.92156863
903.16448975	2.92156863
903.16864014	2.92156863
903.17272949	2.92156863
903.17681885	2.92156863
903.18084717	2.90196085
903.18511963	2.92156863
903.18511963	2.90196085
903.18908691	2.90196085
903.19317627	2.92156863
903.19732666	2.90196085
903.19732666	2.92156863
903.20141602	2.90196085
903.20550537	2.90196085
903.20965576	2.86274505
903.20965576	2.90196085
903.21380615	2.90196085
903.21771240	2.88235283
903.22186279	3.15686274
903.22601318	2.90196085
903.23010254	2.90196085
903.23010254	2.90196085
903.23413086	2.90196085
903.23822021	2.90196085
903.24230957	2.90196085
903.24230957	2.88235283
903.24652100	2.92156863
903.25061035	3.05882359
903.25457764	2.90196085
903.25457764	2.90196085
903.25872803	2.90196085
903.26287842	2.90196085
903.26715088	2.88235283
903.27117920	2.90196085
903.27514648	2.90196085
903.27514648	2.90196085
903.27929688	2.90196085
903.28338623	2.90196085
903.28747559	2.86274505
903.28747559	2.88235283
903.29150391	2.90196085
903.29559326	2.90196085
903.29974365	2.90196085
903.29974365	2.92156863
903.30383301	2.90196085
903.30798340	2.90196085
903.30798340	2.90196085
903.31213379	2.90196085
903.31610107	2.92156863
903.32025146	2.90196085
903.32025146	2.90196085
903.32421875	2.92156863
903.32843018	2.92156863
903.33251953	2.92156863
903.33251953	2.92156863
903.33660889	2.92156863
903.34069824	2.92156863
903.34472656	2.90196085
903.34472656	2.90196085
903.34887695	2.90196085
903.35296631	2.90196085
903.35296631	2.90196085
903.35705566	2.92156863
903.36108398	2.92156863
903.36523438	2.90196085
903.36523438	2.90196085
903.36938477	2.90196085
903.37347412	2.90196085
903.37756348	2.90196085
903.37756348	2.90196085
903.38159180	2.90196085
903.38580322	2.90196085
903.38989258	2.90196085
903.38989258	2.90196085
903.39404297	2.90196085
903.39807129	2.90196085
903.39807129	2.90196085
903.40216064	2.90196085
903.40625000	2.90196085
903.41040039	2.90196085
903.41040039	2.92156863
903.41436768	2.92156863
903.41845703	2.92156863
903.42260742	2.92156863
903.42260742	2.90196085
903.42669678	2.90196085
903.43084717	2.92156863
903.43487549	2.92156863
903.43487549	2.92156863
903.43914795	2.92156863
903.44311523	2.92156863
903.44311523	2.92156863
903.44720459	2.92156863
903.45123291	2.92156863
903.45532227	2.92156863
903.45532227	2.92156863
903.45947266	2.92156863
903.46356201	2.90196085
903.46771240	2.90196085
903.46771240	2.90196085
903.47167969	2.92156863
903.47583008	2.92156863
903.47991943	2.90196085
903.48406982	2.92156863
903.48809814	2.90196085
903.48809814	2.90196085
903.49218750	2.90196085
903.49633789	2.90196085
903.50048828	2.90196085
903.50048828	2.92156863
903.50445557	2.90196085
903.50860596	2.90196085
903.51275635	2.90196085
903.51275635	2.90196085
903.51690674	2.90196085
903.52099609	2.92156863
903.52514648	2.92156863
903.52917480	2.92156863
903.53326416	2.92156863
903.53326416	2.92156863
903.53741455	2.92156863
903.54138184	2.90196085
903.54553223	2.90196085
903.54553223	2.92156863
903.54962158	2.90196085
903.55371094	2.90196085
903.55786133	2.92156863
903.55786133	2.92156863
903.56188965	2.92156863
903.56610107	2.90196085
903.57000732	2.90196085
903.57415771	2.90196085
903.57818604	2.90196085
903.57818604	2.90196085
903.58233643	2.90196085
903.58648682	2.90196085
903.59057617	2.90196085
903.59057617	2.92156863
903.59460449	2.92156863
903.59869385	2.90196085
903.60290527	2.90196085
903.60290527	2.90196085
903.60699463	2.88235283
903.61114502	2.90196085
903.61511230	2.92156863
903.61920166	2.90196085
903.62335205	2.90196085
903.62335205	2.90196085
903.62744141	2.90196085
903.63134766	2.90196085
903.63555908	2.90196085
903.63555908	2.90196085
903.63970947	2.90196085
903.64385986	2.90196085
903.64794922	2.90196085
903.64794922	2.90196085
903.65209961	2.90196085
903.65606689	2.90196085
903.66021729	2.90196085
903.66436768	2.90196085
903.66833496	2.90196085
903.66833496	2.90196085
903.67248535	2.90196085
903.67657471	2.92156863
903.68072510	2.92156863
903.68072510	2.90196085
903.68475342	2.90196085
903.68884277	2.92156863
903.69299316	2.90196085
903.69299316	2.90196085
903.69702148	2.92156863
903.70123291	2.92156863
903.70520020	2.92156863
903.70935059	2.92156863
903.71343994	2.92156863
903.71343994	2.92156863
903.71759033	2.92156863
903.72155762	2.90196085
903.72576904	2.92156863
903.72576904	2.90196085
903.72985840	2.90196085
903.73400879	2.92156863
903.73809814	2.92156863
903.73809814	2.92156863
903.74206543	2.92156863
903.74621582	2.92156863
903.75030518	2.92156863
903.75439453	2.92156863
903.75842285	2.90196085
903.75842285	2.92156863
903.76257324	2.90196085
903.76666260	2.90196085
903.77081299	2.90196085
903.77081299	2.92156863
903.77484131	2.90196085
903.77905273	2.92156863
903.78302002	2.92156863
903.78302002	2.90196085
903.78723145	2.90196085
903.79138184	2.90196085
903.79138184	2.90196085
903.79541016	2.90196085
903.79949951	2.90196085
903.80358887	2.90196085
903.80358887	2.92156863
903.80767822	2.90196085
903.81170654	2.90196085
903.81573486	2.92156863
903.81573486	2.92156863
903.81994629	2.90196085
903.82409668	2.90196085
903.82818604	2.90196085
903.82818604	2.92156863
903.83215332	2.90196085
903.83636475	2.92156863
903.83636475	2.92156863
903.84045410	2.90196085
903.84460449	2.90196085
903.84857178	2.90196085
903.84857178	2.90196085
903.85278320	2.92156863
903.85687256	2.92156863
903.86096191	2.92156863
903.86096191	2.90196085
903.86511230	2.92156863
903.86901855	2.90196085
903.87310791	2.90196085
903.87310791	2.92156863
903.87725830	2.92156863
903.88146973	2.90196085
903.88146973	2.92156863
903.88543701	2.90196085
903.88958740	2.90196085
903.89367676	2.92156863
903.89367676	2.92156863
903.89782715	2.90196085
903.90179443	2.90196085
903.90606689	2.90196085
903.90606689	2.90196085
903.91009521	2.92156863
903.91424561	2.92156863
903.91839600	2.92156863
903.91839600	2.92156863
903.92236328	2.90196085
903.92645264	2.92156863
903.92645264	2.92156863
903.93060303	2.92156863
903.93475342	2.92156863
903.93872070	2.92156863
903.93872070	2.92156863
903.94281006	2.90196085
903.94696045	2.90196085
903.95117188	2.92156863
903.95117188	2.92156863
903.95513916	2.92156863
903.95922852	2.92156863
903.96337891	2.90196085
903.96746826	2.90196085
903.97161865	2.90196085
903.97161865	2.92156863
903.97564697	2.92156863
903.97973633	2.92156863
903.98388672	2.90196085
903.98388672	2.90196085
903.98791504	2.90196085
903.99200439	2.92156863
903.99609375	2.92156863
903.99609375	2.92156863
904.00030518	2.92156863
904.00433350	2.90196085
904.00842285	2.92156863
904.01251221	2.92156863
904.01660156	2.92156863
904.01660156	2.92156863
904.02075195	2.92156863
904.02490234	2.92156863
904.02886963	2.90196085
904.02886963	2.90196085
904.03314209	2.90196085
904.03710938	2.90196085
904.04119873	2.90196085
904.04119873	2.92156863
904.04522705	2.92156863
904.04937744	2.92156863
904.05346680	2.92156863
904.05755615	2.92156863
904.06176758	2.90196085
904.06176758	2.90196085
904.06567383	2.90196085
904.06982422	2.90196085
904.07397461	2.90196085
904.07397461	2.92156863
904.07812500	2.92156863
904.08197021	2.90196085
904.08624268	2.90196085
904.08624268	2.90196085
904.09033203	2.90196085
904.09442139	2.92156863
904.09851074	2.90196085
904.10253906	2.90196085
904.10662842	2.90196085
904.10662842	2.90196085
904.11077881	2.90196085
904.11492920	2.90196085
904.11907959	2.90196085
904.11907959	2.92156863
904.12310791	2.90196085
904.12719727	2.90196085
904.13128662	2.90196085
904.13128662	2.90196085
904.13531494	2.90196085
904.13940430	2.90196085
904.14355469	2.90196085
904.14776611	2.90196085
904.15191650	2.90196085
904.15191650	2.90196085
904.15588379	2.92156863
904.15997314	2.90196085
904.16412354	2.90196085
904.16412354	2.90196085
904.16821289	2.90196085
904.17224121	2.90196085
904.17633057	2.90196085
904.17633057	2.90196085
904.18041992	2.92156863
904.18463135	2.92156863
904.18853760	2.92156863
904.19268799	2.92156863
904.19683838	2.90196085
904.19683838	2.90196085
904.20098877	2.90196085
904.20513916	2.92156863
904.20910645	2.92156863
904.20910645	2.92156863
904.21325684	2.92156863
904.21734619	2.92156863
904.22149658	2.92156863
904.22149658	2.92156863
904.22552490	2.90196085
904.22961426	2.90196085
904.23370361	2.92156863
904.23785400	2.92156863
904.24194336	2.92156863
904.24194336	2.90196085
904.24609375	2.90196085
904.25006104	2.90196085
904.25427246	2.92156863
904.25427246	2.90196085
904.25823975	2.90196085
904.26232910	2.92156863
904.26641846	2.90196085
904.26641846	2.92156863
904.27056885	2.92156863
904.27471924	2.92156863
904.27471924	2.92156863
904.27868652	2.90196085
904.28277588	2.90196085
904.28704834	2.90196085
904.28704834	2.90196085
904.29113770	2.92156863
904.29522705	2.92156863
904.29913330	2.92156863
904.29913330	2.92156863
904.30334473	2.92156863
904.30749512	2.90196085
904.31158447	2.86274505
904.31158447	2.90196085
904.31555176	2.92156863
904.31970215	2.92156863
904.31970215	2.92156863
904.32379150	2.92156863
904.32794189	2.90196085
904.33209229	2.90196085
904.33209229	2.90196085
904.33605957	2.92156863
904.34020996	2.92156863
904.34429932	2.92156863
904.34429932	2.92156863
904.34844971	2.92156863
904.35253906	2.92156863
904.35662842	2.90196085
904.35662842	2.90196085
904.36071777	2.90196085
904.36480713	2.92156863
904.36480713	2.92156863
904.36883545	2.92156863
904.37310791	2.92156863
904.37707520	2.92156863
904.37707520	2.92156863
904.38116455	2.90196085
904.38537598	2.90196085
904.38940430	2.90196085
904.38940430	2.92156863
904.39349365	2.92156863
904.39764404	2.92156863
904.40173340	2.90196085
904.40173340	2.90196085
904.40576172	2.90196085
904.40985107	2.96078420
904.40985107	3.33333325
904.41400146	3.03921580
904.41809082	2.92156863
904.42224121	2.92156863
904.42224121	2.90196085
904.42620850	2.90196085
904.43035889	2.88235283
904.43450928	2.96078420
904.43450928	3.00000000
904.43853760	2.90196085
904.44250488	2.92156863
904.44665527	2.90196085
904.45080566	2.90196085
904.45495605	2.90196085
904.45495605	2.92156863
904.45904541	3.56862736
904.46307373	4.21568632
904.46716309	2.92156863
904.46716309	2.92156863
904.47131348	2.92156863
904.47534180	2.92156863
904.47949219	2.90196085
904.47949219	2.90196085
904.48358154	2.98039222
904.48767090	4.27450991
904.49182129	2.90196085
904.49584961	2.92156863
904.50000000	2.92156863
904.50000000	2.92156863
904.50402832	2.90196085
904.50817871	2.90196085
904.51232910	2.90196085
904.51232910	2.90196085
904.51629639	2.90196085
904.52044678	2.90196085
904.52453613	2.90196085
904.52453613	2.90196085
904.52868652	2.90196085
904.53265381	2.90196085
904.53686523	3.00000000
904.54095459	3.39215684
904.54510498	2.90196085
904.54510498	2.92156863
904.54907227	2.92156863
904.55322266	2.92156863
904.55737305	2.90196085
904.55737305	2.90196085
904.56134033	2.90196085
904.56555176	2.90196085
904.56958008	2.90196085
904.56958008	2.90196085
904.57366943	2.92156863
904.57781982	2.90196085
904.58197021	2.90196085
904.58605957	2.88235283
904.59002686	2.88235283
904.59002686	2.90196085
904.59423828	2.92156863
904.59832764	2.90196085
904.60247803	2.90196085
904.60247803	2.90196085
904.60650635	2.92156863
904.61059570	3.54901958
904.61468506	3.70588231
904.61468506	3.19607854
904.61883545	2.90196085
904.62286377	2.92156863
904.62707520	2.90196085
904.63104248	2.90196085
904.63525391	2.90196085
904.63525391	2.90196085
904.63922119	2.90196085
904.64337158	2.92156863
904.64746094	2.90196085
904.64746094	2.90196085
904.65155029	2.88235283
904.65576172	2.90196085
904.65972900	2.92156863
904.65972900	2.92156863
904.66387939	2.90196085
904.66796875	2.90196085
904.67205811	2.90196085
904.67602539	3.82352948
904.68017578	4.15686274
904.68017578	2.92156863
904.68438721	2.92156863
904.68841553	2.90196085
904.69256592	2.92156863
904.69256592	2.92156863
904.69659424	2.90196085
904.70074463	3.09803915
904.70489502	4.35294104
904.70489502	3.78431368
904.70898438	2.92156863
904.71313477	2.92156863
904.71704102	2.90196085
904.72125244	2.90196085
904.72534180	2.90196085
904.72534180	2.90196085
904.72937012	2.92156863
904.73352051	2.90196085
904.73760986	2.90196085
904.73760986	2.90196085
904.74169922	2.92156863
904.74584961	4.29411745
904.74987793	4.17647076
904.74987793	2.88235283
904.75408936	4.27450991
904.75805664	2.92156863
904.75805664	2.92156863
904.76220703	2.90196085
904.76623535	2.90196085
904.77038574	2.90196085
904.77038574	2.90196085
904.77447510	2.88235283
904.77862549	4.35294104
904.78271484	4.39215708
904.78271484	2.92156863
904.78674316	2.92156863
904.79089355	2.92156863
904.79498291	2.90196085
904.79498291	2.90196085
904.79907227	2.88235283
904.80303955	3.78431368
904.80303955	4.27450991
904.80725098	3.62745094
904.81134033	2.90196085
904.81542969	2.90196085
904.81542969	2.90196085
904.81945801	2.90196085
904.82360840	2.90196085
904.82775879	3.07843137
904.82775879	4.25490189
904.83184814	4.27450991
904.83587646	4.25490189
904.84014893	3.47058821
904.84014893	2.92156863
904.84411621	2.90196085
904.84826660	2.90196085
904.84826660	2.90196085
904.85241699	2.90196085
904.85638428	2.90196085
904.86047363	2.90196085
904.86047363	2.86274505
904.86456299	3.11764717
904.86877441	2.90196085
904.87286377	2.90196085
904.87286377	3.33333325
904.87683105	3.31372547
904.88092041	2.92156863
904.88507080	2.92156863
904.88507080	2.90196085
904.88928223	2.90196085
904.89324951	2.90196085
904.89324951	2.88235283
904.89739990	3.00000000
904.90148926	3.05882359
904.90563965	2.92156863
904.90563965	2.92156863
904.90960693	2.90196085
904.91369629	2.90196085
904.91784668	2.90196085
904.91784668	2.90196085
904.92193604	2.92156863
904.92608643	3.60784316
904.93011475	2.90196085
904.93426514	2.90196085
904.93829346	2.90196085
904.93829346	2.92156863
904.94244385	2.90196085
904.94647217	2.90196085
904.95062256	2.90196085
904.95062256	2.90196085
904.95471191	2.90196085
904.95886230	2.90196085
904.96301270	2.90196085
904.96301270	2.90196085
904.96704102	2.90196085
904.97119141	2.90196085
904.97521973	3.43137264
904.97937012	2.90196085
904.98333740	2.90196085
904.98333740	2.90196085
904.98742676	2.90196085
904.99157715	2.90196085
904.99572754	2.90196085
904.99572754	2.90196085
904.99969482	2.86274505
905.00384521	3.50980401
905.00811768	3.19607854
905.00811768	2.90196085
905.01214600	2.92156863
905.01623535	2.90196085
905.02026367	2.90196085
905.02435303	2.90196085
905.02850342	2.90196085
905.02850342	2.90196085
905.03259277	2.90196085
905.03662109	2.90196085
905.04077148	2.90196085
905.04077148	2.90196085
905.04486084	2.92156863
905.04895020	3.17647052
905.05303955	2.90196085
905.05303955	2.90196085
905.05712891	2.90196085
905.06121826	2.90196085
905.06530762	2.90196085
905.06927490	2.88235283
905.07342529	3.03921580
905.07342529	2.98039222
905.07757568	3.01960778
905.08172607	2.90196085
905.08581543	2.90196085
905.08581543	2.90196085
905.08978271	2.90196085
905.09405518	2.90196085
905.09802246	2.90196085
905.09802246	2.90196085
905.10223389	2.88235283
905.10632324	2.90196085
905.11029053	4.07843161
905.11444092	4.25490189
905.11865234	2.90196085
905.11865234	2.90196085
905.12268066	2.90196085
905.12670898	2.90196085
905.13073730	2.90196085
905.13073730	2.90196085
905.13494873	2.88235283
905.13903809	2.90196085
905.14318848	2.86274505
905.14318848	3.21568632
905.14715576	4.27450991
905.15130615	4.03921556
905.15545654	2.90196085
905.15942383	2.90196085
905.16357422	2.90196085
905.16357422	2.88235283
905.16772461	2.88235283
905.17181396	2.90196085
905.17590332	3.11764717
905.17590332	3.96078420
905.18011475	4.25490189
905.18408203	3.58823538
905.18817139	2.90196085
905.18817139	2.88235283
905.19226074	2.86274505
905.19641113	2.86274505
905.20043945	3.09803915
905.20452881	3.07843137
905.20867920	2.86274505
905.20867920	2.96078420
905.21282959	2.92156863
905.21679688	2.90196085
905.22106934	3.29411769
905.22106934	4.35294104
905.22515869	4.25490189
905.22924805	2.92156863
905.23333740	2.92156863
905.23333740	2.90196085
905.23730469	2.90196085
905.24145508	2.90196085
905.24145508	2.90196085
905.24566650	2.90196085
905.24969482	2.90196085
905.25366211	2.90196085
905.25366211	2.90196085
905.25781250	2.90196085
905.26196289	2.90196085
905.26605225	2.90196085
905.26605225	2.90196085
905.27008057	2.90196085
905.27423096	2.90196085
905.27832031	2.90196085
905.27832031	2.90196085
905.28247070	2.90196085
905.28662109	2.90196085
905.28662109	2.90196085
905.29058838	2.90196085
905.29467773	2.90196085
905.29882813	2.90196085
905.29882813	2.90196085
905.30291748	2.90196085
905.30712891	2.90196085
905.31097412	2.90196085
905.31097412	2.90196085
905.31512451	2.90196085
905.31933594	2.90196085
905.32342529	2.88235283
905.32342529	2.90196085
905.32745361	2.90196085
905.33148193	2.92156863
905.33148193	2.90196085
905.33569336	2.92156863
905.33966064	2.90196085
905.34381104	2.90196085
905.34381104	2.90196085
905.34796143	2.92156863
905.35211182	2.90196085
905.35620117	2.90196085
905.35620117	2.90196085
905.36016846	2.90196085
905.36431885	2.90196085
905.36840820	2.90196085
905.36840820	2.90196085
905.37249756	2.90196085
905.37664795	2.90196085
905.37664795	2.90196085
905.38067627	2.90196085
905.38482666	2.90196085
905.38891602	2.90196085
905.38891602	2.90196085
905.39306641	2.90196085
905.39703369	2.90196085
905.40118408	2.90196085
905.40118408	2.90196085
905.40527344	2.90196085
905.40948486	2.90196085
905.41357422	2.88235283
905.41760254	2.90196085
905.42169189	2.90196085
905.42169189	2.90196085
905.42578125	2.90196085
905.42993164	2.90196085
905.43402100	2.90196085
905.43402100	2.90196085
905.43804932	2.90196085
905.44219971	2.90196085
905.44628906	2.90196085
905.44628906	2.90196085
905.45031738	2.90196085
905.45440674	2.90196085
905.45855713	2.90196085
905.46270752	2.90196085
905.46679688	2.90196085
905.46679688	2.90196085
905.47082520	2.90196085
905.47497559	2.90196085
905.47912598	2.90196085
905.47912598	2.90196085
905.48321533	2.90196085
905.48718262	2.90196085
905.49127197	2.90196085
905.49127197	2.90196085
905.49536133	2.90196085
905.49951172	2.90196085
905.50360107	2.90196085
905.50769043	2.90196085
905.51177979	2.90196085
905.51177979	2.90196085
905.51586914	2.90196085
905.52008057	2.90196085
905.52404785	2.90196085
905.52404785	2.90196085
905.52819824	2.90196085
905.53228760	2.90196085
905.53637695	2.90196085
905.53637695	2.90196085
905.54040527	2.90196085
905.54449463	2.90196085
905.54864502	2.90196085
905.55279541	2.90196085
905.55688477	2.90196085
905.55688477	2.90196085
905.56103516	2.90196085
905.56506348	2.90196085
905.56921387	2.90196085
905.56921387	2.90196085
905.57330322	2.90196085
905.57727051	2.90196085
905.58148193	2.90196085
905.58148193	2.90196085
905.58563232	2.90196085
905.58972168	2.90196085
905.59375000	2.90196085
905.59783936	2.90196085
905.60211182	2.88235283
905.60211182	2.90196085
905.60607910	2.90196085
905.61016846	2.90196085
905.61419678	2.90196085
905.61419678	2.90196085
905.61834717	2.90196085
905.62249756	2.90196085
905.62658691	2.90196085
905.62658691	2.90196085
905.63055420	2.90196085
905.63470459	2.90196085
905.63885498	2.90196085
905.64300537	2.90196085
905.64709473	2.90196085
905.64709473	2.90196085
905.65106201	2.90196085
905.65527344	2.90196085
905.65930176	2.90196085
905.65930176	2.90196085
905.66345215	2.90196085
905.66748047	2.90196085
905.67156982	2.90196085
905.67156982	2.90196085
905.67565918	2.90196085
905.67987061	2.90196085
905.68383789	2.90196085
905.68804932	2.90196085
905.69207764	2.90196085
905.69207764	2.90196085
905.69622803	2.90196085
905.70031738	2.90196085
905.70434570	2.90196085
905.70434570	2.88235283
905.70843506	2.88235283
905.71258545	2.88235283
905.71667480	2.90196085
905.71667480	2.90196085
905.72064209	2.90196085
905.72479248	2.90196085
905.72479248	2.90196085
905.72888184	2.90196085
905.73303223	2.90196085
905.73724365	2.90196085
905.73724365	2.90196085
905.74121094	2.90196085
905.74530029	2.90196085
905.74945068	2.90196085
905.74945068	2.90196085
905.75360107	2.90196085
905.75756836	2.90196085
905.76171875	2.90196085
905.76171875	2.88235283
905.76586914	2.90196085
905.77001953	2.90196085
905.77001953	2.90196085
905.77410889	2.90196085
905.77813721	2.86274505
905.78222656	2.88235283
905.78222656	2.86274505
905.78637695	2.86274505
905.79034424	2.86274505
905.79443359	2.90196085
905.79443359	2.90196085
905.79852295	2.90196085
905.80273438	2.92156863
905.80682373	2.86274505
905.80682373	2.86274505
905.81079102	2.90196085
905.81506348	2.88235283
905.81506348	2.90196085
905.81909180	2.90196085
905.82324219	2.90196085
905.82739258	2.90196085
905.82739258	2.90196085
905.83135986	2.90196085
905.83551025	2.90196085
905.83959961	2.90196085
905.83959961	2.90196085
905.84362793	2.90196085
905.84771729	2.90196085
905.85186768	2.90196085
905.85186768	2.90196085
905.85595703	2.90196085
905.86004639	2.90196085
905.86004639	2.90196085
905.86407471	2.90196085
905.86822510	2.90196085
905.87231445	2.90196085
905.87231445	2.90196085
905.87640381	2.92156863
905.88037109	2.90196085
905.88458252	2.90196085
905.88458252	2.90196085
905.88867188	2.90196085
905.89276123	2.90196085
905.89691162	2.90196085
905.90100098	2.92156863
905.90502930	2.92156863
905.90502930	2.90196085
905.90924072	2.90196085
905.91333008	2.90196085
905.91748047	2.92156863
905.91748047	2.92156863
905.92144775	2.92156863
905.92553711	2.90196085
905.92968750	2.90196085
905.92968750	2.92156863
905.93383789	2.92156863
905.93780518	2.92156863
905.94201660	2.90196085
905.94604492	2.90196085
905.95019531	2.92156863
905.95019531	2.92156863
905.95416260	2.92156863
905.95831299	2.92156863
905.96240234	2.92156863
905.96240234	2.92156863
905.96649170	2.90196085
905.97058105	2.92156863
905.97473145	2.92156863
905.97473145	2.92156863
905.97882080	2.92156863
905.98297119	2.92156863
905.98706055	2.92156863
905.99108887	2.92156863
905.99523926	2.92156863
905.99523926	2.92156863
905.99920654	2.92156863
906.00341797	2.92156863
906.00756836	2.92156863
906.00756836	2.92156863
906.01153564	2.92156863
906.01568604	2.92156863
906.01983643	2.92156863
906.01983643	2.92156863
906.02392578	2.92156863
906.02807617	2.92156863
906.03210449	2.92156863
906.03625488	2.92156863
906.04034424	2.92156863
906.04034424	2.92156863
906.04431152	2.92156863
906.04840088	2.92156863
906.05261230	2.92156863
906.05261230	2.92156863
906.05670166	2.92156863
906.06060791	2.92156863
906.06475830	2.92156863
906.06475830	2.92156863
906.06890869	2.92156863
906.07305908	2.92156863
906.07720947	2.92156863
906.08111572	2.92156863
906.08526611	2.92156863
906.08526611	2.92156863
906.08941650	2.92156863
906.09356689	2.92156863
906.09765625	2.92156863
906.09765625	2.92156863
906.10174561	2.92156863
906.10583496	2.92156863
906.10992432	2.90196085
906.10992432	2.90196085
906.11407471	2.92156863
906.11810303	2.92156863
906.12213135	2.92156863
906.12628174	2.92156863
906.13043213	2.92156863
906.13043213	2.90196085
906.13446045	2.92156863
906.13854980	2.92156863
906.14270020	2.92156863
906.14270020	2.92156863
906.14678955	2.92156863
906.15081787	2.92156863
906.15502930	2.90196085
906.15502930	2.90196085
906.15911865	2.92156863
906.16314697	2.92156863
906.16735840	2.92156863
906.17132568	2.90196085
906.17541504	2.92156863
906.17541504	2.90196085
906.17956543	2.90196085
906.18359375	2.92156863
906.18780518	2.90196085
906.18780518	2.92156863
906.19177246	2.92156863
906.19592285	2.90196085
906.20001221	2.90196085
906.20001221	2.90196085
906.20404053	2.90196085
906.20812988	2.92156863
906.20812988	2.90196085
906.21228027	2.90196085
906.21636963	2.90196085
906.22070313	2.90196085
906.22070313	2.90196085
906.22460938	2.92156863
906.22875977	2.90196085
906.23284912	2.92156863
906.23284912	2.92156863
906.23693848	2.92156863
906.24102783	2.90196085
906.24493408	2.90196085
906.24493408	2.90196085
906.24914551	2.92156863
906.25329590	2.92156863
906.25329590	2.92156863
906.25726318	2.90196085
906.26141357	2.90196085
906.26556396	2.90196085
906.26556396	2.90196085
906.26965332	2.90196085
906.27380371	2.92156863
906.27795410	2.92156863
906.27795410	2.92156863
906.28204346	2.92156863
906.28607178	2.92156863
906.29022217	2.92156863
906.29022217	2.92156863
906.29418945	2.90196085
906.29833984	2.90196085
906.29833984	2.90196085
906.30242920	2.90196085
906.30657959	2.92156863
906.31066895	2.92156863
906.31066895	2.92156863
906.31469727	2.92156863
906.31884766	2.90196085
906.32299805	2.90196085
906.32299805	2.90196085
906.32708740	2.90196085
906.33111572	2.92156863
906.33520508	2.92156863
906.33520508	2.92156863
906.33935547	2.92156863
906.34350586	2.90196085
906.34350586	2.90196085
906.34747314	2.92156863
906.35162354	2.90196085
906.35571289	2.90196085
906.35571289	2.88235283
906.35980225	2.90196085
906.36389160	2.92156863
906.36810303	2.92156863
906.36810303	2.92156863
906.37207031	2.90196085
906.37615967	2.92156863
906.38031006	2.90196085
906.38433838	2.90196085
906.38848877	2.92156863
906.38848877	2.90196085
906.39270020	2.92156863
906.39672852	2.92156863
906.40081787	2.92156863
906.40081787	2.92156863
906.40484619	2.90196085
906.40911865	2.90196085
906.41308594	2.90196085
906.41308594	2.90196085
906.41723633	2.90196085
906.42120361	2.90196085
906.42529297	2.90196085
906.42944336	2.90196085
906.43359375	2.90196085
906.43359375	2.90196085
906.43768311	2.90196085
906.44165039	2.90196085
906.44586182	2.90196085
906.44586182	2.90196085
906.44995117	2.90196085
906.45410156	2.90196085
906.45825195	2.90196085
906.45825195	2.90196085
906.46221924	2.90196085
906.46630859	2.90196085
906.47052002	2.88235283
906.47442627	2.90196085
906.47863770	2.90196085
906.47863770	2.90196085
906.48266602	2.90196085
906.48681641	2.90196085
906.49090576	2.90196085
906.49090576	2.90196085
906.49511719	2.90196085
906.49914551	2.90196085
906.50323486	2.90196085
906.50323486	2.88235283
906.50732422	2.90196085
906.51129150	2.90196085
906.51538086	2.88235283
906.51959229	2.90196085
906.52368164	2.90196085
906.52368164	2.90196085
906.52764893	2.90196085
906.53173828	2.90196085
906.53607178	2.90196085
906.53607178	2.86274505
906.53997803	2.88235283
906.54418945	2.90196085
906.54821777	2.90196085
906.54821777	2.90196085
906.55230713	2.90196085
906.55639648	2.88235283
906.56054688	2.90196085
906.56451416	2.90196085
906.56866455	2.92156863
906.56866455	2.92156863
906.57275391	2.90196085
906.57690430	2.90196085
906.58111572	2.92156863
906.58111572	2.90196085
906.58508301	2.90196085
906.58923340	2.90196085
906.59338379	2.90196085
906.59338379	2.90196085
906.59747314	2.92156863
906.60162354	2.90196085
906.60559082	2.90196085
906.60968018	2.92156863
906.61376953	2.90196085
906.61376953	2.86274505
906.61798096	2.90196085
906.62207031	2.92156863
906.62603760	2.92156863
906.62603760	2.90196085
906.63012695	2.90196085
906.63433838	2.92156863
906.63842773	2.90196085
906.63842773	2.88235283
906.64239502	3.23529410
906.64654541	3.23529410
906.65063477	2.88235283
906.65466309	2.92156863
906.65881348	2.92156863
906.65881348	2.90196085
906.66296387	2.90196085
906.66711426	2.90196085
906.67120361	2.92156863
906.67120361	2.90196085
906.67517090	2.88235283
906.67932129	2.90196085
906.68353271	2.92156863
906.68353271	2.92156863
906.68756104	2.90196085
906.69165039	2.90196085
906.69165039	2.90196085
906.69567871	2.92156863
906.69976807	2.90196085
906.70391846	2.90196085
906.70391846	2.92156863
906.70806885	2.92156863
906.71203613	2.92156863
906.71612549	2.90196085
906.71612549	2.90196085
906.72033691	2.88235283
906.72442627	3.33333325
906.72863770	2.92156863
906.72863770	2.92156863
906.73254395	2.92156863
906.73669434	2.92156863
906.73669434	2.90196085
906.74084473	2.90196085
906.74481201	2.90196085
906.74896240	2.90196085
906.74896240	2.92156863
906.75305176	2.92156863
906.75714111	2.90196085
906.76129150	2.92156863
906.76129150	2.92156863
906.76525879	2.92156863
906.76940918	2.90196085
906.77349854	2.90196085
906.77349854	2.90196085
906.77764893	2.90196085
906.78186035	2.90196085
906.78186035	2.88235283
906.78582764	2.90196085
906.78997803	2.92156863
906.79406738	2.92156863
906.79406738	2.90196085
906.79803467	2.90196085
906.80218506	2.90196085
906.80627441	2.88235283
906.80627441	2.90196085
906.81030273	2.92156863
906.81451416	2.90196085
906.81854248	2.92156863
906.81854248	2.94117641
906.82269287	4.23529434
906.82678223	2.90196085
906.82678223	2.92156863
906.83093262	2.92156863
906.83502197	2.92156863
906.83905029	2.90196085
906.83905029	2.90196085
906.84313965	2.92156863
906.84735107	4.01960802
906.85150146	3.45098042
906.85150146	2.90196085
906.85546875	2.90196085
906.85955811	2.90196085
906.86364746	2.90196085
906.86785889	2.92156863
906.87182617	2.90196085
906.87182617	2.90196085
906.87597656	2.88235283
906.88000488	2.92156863
906.88415527	2.90196085
906.88415527	2.90196085
906.88818359	2.88235283
906.89227295	2.90196085
906.89642334	2.92156863
906.89642334	2.90196085
906.90051270	3.01960778
906.90466309	3.66666675
906.90869141	2.92156863
906.91278076	2.92156863
906.91699219	2.90196085
906.91699219	2.90196085
906.92108154	2.88235283
906.92504883	2.92156863
906.92913818	2.90196085
906.92913818	2.92156863
906.93322754	2.90196085
906.93737793	3.68627453
906.94152832	4.33333349
906.94152832	2.92156863
906.94549561	2.92156863
906.94964600	2.92156863
906.95379639	2.90196085
906.95794678	2.92156863
906.96203613	2.90196085
906.96203613	2.88235283
906.96600342	2.90196085
906.97021484	2.90196085
906.97436523	2.92156863
906.97436523	4.27450991
906.97833252	3.15686274
906.98248291	2.88235283
906.98651123	2.92156863
906.98651123	2.92156863
906.99066162	2.92156863
906.99468994	2.92156863
906.99877930	2.86274505
907.00305176	3.00000000
907.00701904	3.50980401
907.00701904	2.90196085
907.01116943	2.92156863
907.01513672	2.98039222
907.01928711	4.15686274
907.01928711	2.90196085
907.02343750	2.92156863
907.02752686	2.92156863
907.03167725	2.92156863
907.03167725	2.90196085
907.03570557	2.90196085
907.03985596	2.88235283
907.04394531	2.86274505
907.04803467	2.88235283
907.05212402	2.88235283
907.05212402	2.92156863
907.05609131	2.92156863
907.06024170	2.90196085
907.06439209	3.13725495
907.06439209	3.35294127
907.06842041	2.90196085
907.07250977	2.90196085
907.07666016	2.92156863
907.07666016	2.90196085
907.08081055	2.90196085
907.08496094	2.90196085
907.08911133	2.90196085
907.09307861	2.90196085
907.09722900	2.90196085
907.09722900	2.90196085
907.10131836	2.90196085
907.10534668	2.92156863
907.10943604	2.90196085
907.10943604	2.90196085
907.11352539	2.86274505
907.11767578	2.90196085
907.12176514	2.90196085
907.12176514	4.07843161
907.12579346	4.07843161
907.13006592	2.92156863
907.13409424	2.92156863
907.13824463	2.90196085
907.14227295	2.90196085
907.14227295	3.05882359
907.14636230	4.21568632
907.15039063	2.92156863
907.15460205	2.90196085
907.15460205	2.92156863
907.15869141	2.92156863
907.16265869	2.90196085
907.16687012	2.90196085
907.16687012	2.90196085
907.17089844	2.90196085
907.17504883	2.96078420
907.17504883	3.37254906
907.17907715	2.90196085
907.18322754	2.88235283
907.18731689	2.94117641
907.18731689	2.92156863
907.19140625	2.92156863
907.19543457	2.92156863
907.19958496	2.90196085
907.19958496	2.90196085
907.20373535	2.90196085
907.20782471	2.90196085
907.21197510	4.19607830
907.21197510	4.19607830
907.21606445	2.92156863
907.22009277	2.92156863
907.22009277	2.92156863
907.22424316	2.92156863
907.22833252	2.90196085
907.23242188	2.90196085
907.23242188	2.90196085
907.23638916	2.90196085
907.24060059	2.90196085
907.24468994	2.90196085
907.24468994	2.90196085
907.24865723	2.90196085
907.25280762	2.90196085
907.25708008	2.90196085
907.25708008	2.86274505
907.26110840	2.86274505
907.26525879	2.90196085
907.26525879	2.90196085
907.26922607	2.92156863
907.27337646	2.92156863
907.27746582	2.90196085
907.27746582	2.90196085
907.28155518	2.86274505
907.28558350	2.90196085
907.28967285	2.90196085
907.28967285	2.90196085
907.29382324	2.90196085
907.29791260	2.90196085
907.30206299	2.90196085
907.30206299	2.90196085
907.30603027	2.92156863
907.31018066	2.92156863
907.31018066	2.92156863
907.31427002	2.92156863
907.31842041	2.90196085
907.32257080	2.90196085
907.32257080	2.90196085
907.32659912	2.90196085
907.33068848	2.90196085
907.33483887	2.92156863
907.33483887	2.90196085
907.33886719	2.90196085
907.34307861	2.92156863
907.34704590	2.90196085
907.35119629	2.90196085
907.35534668	2.90196085
907.35534668	2.88235283
907.35925293	3.39215684
907.36340332	4.19607830
907.36761475	2.92156863
907.36761475	2.92156863
907.37164307	2.92156863
907.37567139	2.92156863
907.37976074	2.90196085
907.37976074	2.90196085
907.38391113	2.90196085
907.38806152	2.90196085
907.39215088	3.43137264
907.39611816	4.23529434
907.40026855	3.25490189
907.40026855	2.92156863
907.40441895	2.92156863
907.40850830	2.90196085
907.41265869	2.90196085
907.41265869	2.90196085
907.41668701	2.86274505
907.42077637	3.96078420
907.42498779	4.27450991
907.42498779	3.64705873
907.42907715	2.90196085
907.43304443	2.90196085
907.43719482	2.90196085
907.44128418	2.90196085
907.44543457	2.90196085
907.44543457	2.90196085
907.44946289	2.90196085
907.45361328	2.90196085
907.45770264	2.90196085
907.45770264	2.88235283
907.46185303	2.90196085
907.46588135	2.90196085
907.47009277	2.90196085
907.47009277	2.90196085
907.47412109	2.90196085
907.47814941	2.90196085
907.48229980	2.90196085
907.48626709	2.90196085
907.49047852	2.90196085
907.49047852	2.92156863
907.49450684	2.92156863
907.49865723	2.92156863
907.50280762	2.90196085
907.50280762	2.90196085
907.50677490	2.90196085
907.51092529	2.90196085
907.51501465	2.90196085
907.51501465	2.88235283
907.51904297	3.03921580
907.52313232	3.01960778
907.52728271	2.92156863
907.53143311	2.90196085
907.53558350	2.92156863
907.53558350	2.90196085
907.53955078	2.90196085
907.54370117	2.90196085
907.54779053	2.88235283
907.54779053	2.90196085
907.55194092	2.90196085
907.55603027	2.90196085
907.55993652	2.90196085
907.55993652	2.90196085
907.56414795	2.90196085
907.56829834	2.90196085
907.57238770	2.88235283
907.57641602	2.88235283
907.58056641	2.90196085
907.58056641	2.90196085
907.58465576	2.90196085
907.58880615	2.90196085
907.59289551	2.90196085
907.59289551	2.90196085
907.59710693	2.90196085
907.60107422	2.90196085
907.60516357	2.88235283
907.60516357	2.90196085
907.60919189	2.96078420
907.61334229	2.90196085
907.61743164	2.90196085
907.62139893	2.90196085
907.62554932	2.90196085
907.62554932	2.90196085
907.62957764	2.90196085
907.63378906	2.90196085
907.63787842	2.90196085
907.63787842	2.90196085
907.64196777	2.88235283
907.64599609	2.90196085
907.65014648	2.90196085
907.65014648	2.90196085
907.65423584	2.90196085
907.65838623	2.90196085
907.65838623	2.90196085
907.66229248	2.90196085
907.66650391	2.90196085
907.67059326	2.92156863
907.67059326	2.90196085
907.67474365	2.90196085
907.67883301	2.90196085
907.68298340	2.90196085
907.68298340	2.92156863
907.68695068	2.90196085
907.69116211	2.92156863
907.69525146	2.92156863
907.69525146	2.90196085
907.69921875	2.90196085
907.70336914	2.92156863
907.70336914	2.90196085
907.70751953	2.90196085
907.71160889	2.90196085
907.71575928	2.90196085
907.71575928	2.90196085
907.71984863	2.90196085
907.72406006	2.90196085
907.72802734	2.90196085
907.72802734	2.90196085
907.73217773	2.90196085
907.73614502	2.90196085
907.74023438	2.90196085
907.74023438	2.90196085
907.74432373	2.90196085
907.74853516	2.90196085
907.74853516	2.90196085
907.75256348	2.90196085
907.75665283	2.92156863
907.76074219	2.90196085
907.76074219	2.90196085
907.76489258	2.90196085
907.76904297	2.92156863
907.77307129	2.92156863
907.77307129	2.90196085
907.77716064	2.92156863
907.78131104	2.90196085
907.78546143	2.90196085
907.78546143	2.90196085
907.78942871	2.90196085
907.79351807	2.90196085
907.79351807	2.90196085
907.79766846	2.90196085
907.80175781	2.90196085
907.80584717	2.90196085
907.80584717	2.90196085
907.80999756	2.90196085
907.81402588	2.90196085
907.81817627	2.90196085
907.81817627	2.90196085
907.82226563	2.86274505
907.82629395	2.90196085
907.83038330	2.90196085
907.83453369	2.90196085
907.83862305	2.90196085
907.83862305	2.90196085
907.84259033	2.90196085
907.84674072	2.90196085
907.85095215	2.90196085
907.85095215	2.90196085
907.85498047	2.90196085
907.85906982	2.90196085
907.86309814	2.90196085
907.86309814	2.90196085
907.86730957	2.90196085
907.87139893	2.90196085
907.87554932	2.90196085
907.87951660	2.90196085
907.88366699	2.90196085
907.88366699	2.90196085
907.88775635	2.92156863
907.89196777	2.92156863
907.89611816	2.90196085
907.89611816	2.90196085
907.90008545	2.90196085
907.90423584	2.90196085
907.90832520	2.90196085
907.90832520	2.90196085
907.91247559	2.90196085
907.91638184	2.90196085
907.92053223	2.92156863
907.92462158	2.92156863
907.92883301	2.92156863
907.92883301	2.92156863
907.93280029	2.92156863
907.93707275	2.90196085
907.94116211	2.90196085
907.94116211	2.92156863
907.94519043	2.92156863
907.94921875	2.92156863
907.95336914	2.92156863
907.95336914	2.92156863
907.95745850	2.90196085
907.96154785	2.92156863
907.96569824	2.90196085
907.96972656	2.90196085
907.97381592	2.92156863
907.97381592	2.92156863
907.97796631	2.90196085
907.98205566	2.90196085
907.98614502	2.90196085
907.98614502	2.92156863
907.99017334	2.92156863
907.99432373	2.92156863
907.99841309	2.90196085
907.99841309	2.90196085
908.00256348	2.90196085
908.00659180	2.92156863
908.01068115	2.92156863
908.01483154	2.92156863
908.01898193	2.90196085
908.01898193	2.92156863
908.02307129	2.92156863
908.02709961	2.92156863
908.03118896	2.92156863
908.03118896	2.92156863
908.03533936	2.92156863
908.03948975	2.90196085
908.04339600	2.90196085
908.04339600	2.90196085
908.04754639	2.90196085
908.05169678	2.90196085
908.05578613	2.90196085
908.05975342	2.90196085
908.06402588	2.90196085
908.06402588	2.90196085
908.06805420	2.90196085
908.07220459	2.90196085
908.07635498	2.92156863
908.07635498	2.92156863
908.08032227	2.90196085
908.08441162	2.90196085
908.08856201	2.90196085
908.08856201	2.90196085
908.09271240	2.90196085
908.09680176	2.90196085
908.10076904	2.90196085
908.10498047	2.90196085
908.10900879	2.90196085
908.10900879	2.90196085
908.11303711	2.90196085
908.11718750	2.90196085
908.12127686	2.90196085
908.12127686	2.90196085
908.12542725	2.90196085
908.12951660	2.90196085
908.13366699	2.90196085
908.13366699	2.90196085
908.13763428	2.90196085
908.14178467	2.90196085
908.14178467	2.90196085
908.14587402	2.90196085
908.14996338	2.90196085
908.15399170	2.90196085
908.15399170	2.90196085
908.15814209	2.90196085
908.16229248	2.90196085
908.16644287	2.90196085
908.16644287	2.90196085
908.17041016	2.90196085
908.17449951	2.90196085
908.17871094	2.90196085
908.17871094	2.90196085
908.18280029	2.90196085
908.18688965	2.90196085
908.18688965	2.90196085
908.19097900	2.90196085
908.19500732	2.90196085
908.19909668	2.90196085
908.19909668	2.90196085
908.20318604	2.90196085
908.20727539	2.92156863
908.21142578	2.92156863
908.21142578	2.92156863
908.21551514	2.90196085
908.21960449	2.90196085
908.22369385	2.90196085
908.22369385	2.92156863
908.22778320	2.92156863
908.23193359	2.92156863
908.23193359	2.92156863
908.23602295	2.90196085
908.24005127	2.90196085
908.24420166	2.92156863
908.24420166	2.92156863
908.24829102	2.92156863
908.25238037	2.92156863
908.25653076	2.92156863
908.25653076	2.92156863
908.26049805	2.92156863
908.26464844	2.92156863
908.26879883	2.92156863
908.26879883	2.92156863
908.27288818	2.92156863
908.27703857	2.92156863
908.27703857	2.92156863
908.28100586	2.92156863
908.28527832	2.92156863
908.28930664	2.92156863
908.28930664	2.92156863
908.29327393	2.92156863
908.29742432	2.92156863
908.30157471	2.90196085
908.30157471	2.92156863
908.30566406	2.92156863
908.30969238	2.92156863
908.31372070	2.92156863
908.31805420	2.90196085
908.32202148	2.90196085
908.32202148	2.90196085
908.32617188	2.90196085
908.33013916	2.90196085
908.33422852	2.92156863
908.33422852	2.92156863
908.33837891	2.90196085
908.34252930	2.90196085
908.34667969	2.92156863
908.34667969	2.92156863
908.35070801	2.92156863
908.35479736	2.92156863
908.35888672	2.90196085
908.36303711	2.90196085
908.36718750	2.92156863
908.36718750	2.92156863
908.37109375	2.90196085
908.37524414	2.90196085
908.37939453	2.92156863
908.37939453	2.92156863
908.38342285	2.90196085
908.38751221	2.90196085
908.39166260	2.90196085
908.39166260	2.92156863
908.39575195	2.92156863
908.39984131	2.90196085
908.40405273	2.92156863
908.40802002	2.92156863
908.41217041	2.92156863
908.41217041	2.92156863
908.41625977	2.90196085
908.42028809	2.90196085
908.42437744	2.92156863
908.42437744	2.92156863
908.42846680	2.92156863
908.43261719	2.92156863
908.43676758	2.90196085
908.43676758	2.90196085
908.44073486	2.90196085
908.44506836	2.90196085
908.44903564	2.92156863
908.45318604	2.92156863
908.45727539	2.92156863
908.45727539	2.92156863
908.46130371	2.90196085
908.46539307	2.90196085
908.46954346	2.90196085
908.46954346	2.92156863
908.47351074	2.92156863
908.47766113	2.92156863
908.48181152	2.90196085
908.48181152	2.90196085
908.48590088	2.90196085
908.48999023	2.92156863
908.49395752	2.92156863
908.49810791	2.92156863
908.50231934	2.92156863
908.50231934	2.90196085
908.50640869	2.92156863
908.51037598	2.92156863
908.51452637	2.92156863
908.51452637	2.90196085
908.51867676	2.90196085
908.52276611	2.92156863
908.52691650	2.92156863
908.52691650	2.92156863
908.53100586	2.92156863
908.53497314	2.92156863
908.53912354	2.90196085
908.54321289	2.92156863
908.54724121	2.92156863
908.54724121	2.92156863
908.55139160	2.92156863
908.55554199	2.90196085
908.55969238	2.90196085
908.55969238	2.90196085
908.56365967	2.92156863
908.56774902	2.92156863
908.57202148	2.92156863
908.57202148	2.92156863
908.57604980	2.92156863
908.58013916	2.90196085
908.58416748	2.90196085
908.58831787	2.92156863
908.59246826	2.92156863
908.59246826	2.92156863
908.59655762	2.92156863
908.60052490	2.90196085
908.60467529	2.90196085
908.60467529	2.90196085
908.60876465	2.90196085
908.61291504	2.90196085
908.61706543	2.90196085
908.61706543	2.90196085
908.62103271	2.90196085
908.62512207	2.92156863
908.62512207	2.90196085
908.62927246	2.90196085
908.63360596	2.90196085
908.63745117	2.86274505
908.63745117	3.27450991
908.64154053	2.92156863
908.64569092	2.92156863
908.64984131	2.90196085
908.64984131	2.92156863
908.65380859	2.92156863
908.65808105	2.90196085
908.66204834	2.90196085
908.66204834	2.90196085
908.66619873	2.90196085
908.67028809	2.90196085
908.67028809	2.90196085
908.67425537	2.90196085
908.67840576	2.90196085
908.68255615	2.90196085
908.68255615	2.90196085
908.68664551	2.90196085
908.69067383	2.90196085
908.69482422	2.90196085
908.69482422	2.92156863
908.69897461	2.90196085
908.70306396	2.90196085
908.70715332	2.90196085
908.70715332	2.92156863
908.71112061	2.92156863
908.71527100	2.92156863
908.71527100	2.90196085
908.71936035	2.90196085
908.72351074	2.90196085
908.72741699	2.92156863
908.72741699	2.92156863
908.73162842	2.92156863
908.73583984	2.90196085
908.73986816	2.90196085
908.73986816	2.90196085
908.74401855	2.90196085
908.74804688	2.92156863
908.75225830	2.92156863
908.75225830	2.90196085
908.75634766	2.92156863
908.76043701	2.90196085
908.76043701	2.90196085
908.76440430	2.90196085
908.76861572	2.90196085
908.77270508	2.92156863
908.77270508	2.92156863
908.77685547	2.92156863
908.78082275	2.90196085
908.78509521	2.90196085
908.78509521	2.90196085
908.78906250	2.90196085
908.79315186	2.90196085
908.79724121	2.90196085
908.80133057	2.88235283
908.80541992	2.90196085
908.80541992	2.92156863
908.80950928	2.92156863
908.81365967	2.90196085
908.81768799	2.90196085
908.81768799	2.90196085
908.82183838	2.90196085
908.82598877	2.90196085
908.83001709	2.90196085
908.83001709	2.90196085
908.83404541	2.92156863
908.83819580	2.90196085
908.84234619	2.92156863
908.84643555	2.90196085
908.85052490	2.90196085
908.85052490	2.90196085
908.85461426	2.90196085
908.85864258	2.90196085
908.86279297	2.90196085
908.86279297	2.90196085
908.86694336	2.90196085
908.87103271	2.90196085
908.87500000	2.90196085
908.87500000	2.90196085
908.87908936	2.90196085
908.88330078	2.90196085
908.88739014	2.92156863
908.89141846	2.90196085
908.89550781	2.90196085
908.89550781	2.90196085
908.89959717	2.90196085
908.90374756	2.90196085
908.90777588	2.90196085
908.90777588	2.90196085
908.91192627	2.92156863
908.91607666	2.92156863
908.92016602	2.92156863
908.92016602	2.90196085
908.92413330	2.90196085
908.92828369	2.92156863
908.93243408	2.90196085
908.93658447	2.90196085
908.94055176	2.92156863
908.94055176	2.90196085
908.94464111	2.90196085
908.94873047	2.92156863
908.95294189	2.92156863
908.95294189	2.90196085
908.95703125	2.90196085
908.96099854	2.88235283
908.96508789	2.90196085
908.96508789	2.90196085
908.96929932	2.92156863
908.97344971	2.92156863
908.97747803	2.90196085
908.98156738	2.90196085
908.98571777	2.90196085
908.98571777	2.90196085
908.98974609	2.90196085
908.99395752	2.90196085
908.99798584	2.90196085
908.99798584	2.90196085
909.00195313	2.90196085
909.00610352	2.90196085
909.01025391	2.90196085
909.01025391	2.88235283
909.01428223	4.27450991
909.01837158	4.13725471
909.02252197	2.92156863
909.02667236	2.90196085
909.03076172	2.90196085
909.03076172	2.90196085
909.03479004	2.88235283
909.03894043	2.90196085
909.04302979	2.92156863
909.04302979	2.90196085
909.04711914	2.90196085
909.05114746	2.90196085
909.05529785	2.90196085
909.05529785	2.90196085
909.05938721	2.86274505
909.06341553	2.86274505
909.06768799	2.92156863
909.07165527	2.92156863
909.07574463	2.90196085
909.07574463	2.90196085
909.07989502	2.90196085
909.08398438	2.90196085
909.08801270	2.90196085
909.08801270	2.90196085
909.09216309	2.88235283
909.09631348	3.03921580
909.10040283	2.90196085
909.10040283	2.90196085
909.10443115	2.90196085
909.10852051	2.90196085
909.10852051	2.90196085
909.11260986	2.92156863
909.11694336	2.92156863
909.12084961	2.90196085
909.12084961	2.90196085
909.12493896	2.90196085
909.12896729	2.90196085
909.13311768	2.88235283
909.13311768	3.27450991
909.13726807	2.90196085
909.14123535	2.92156863
909.14532471	2.90196085
909.14532471	2.90196085
909.14947510	2.90196085
909.15362549	2.90196085
909.15362549	2.90196085
909.15765381	2.90196085
909.16180420	2.90196085
909.16607666	2.92156863
909.16607666	2.90196085
909.17004395	2.90196085
909.17413330	2.90196085
909.17803955	2.88235283
909.17803955	3.31372547
909.18225098	4.29411745
909.18634033	3.78431368
909.19049072	2.92156863
909.19049072	2.92156863
909.19451904	2.90196085
909.19860840	2.90196085
909.19860840	2.88235283
909.20281982	2.88235283
909.20690918	3.03921580
909.21099854	3.49019599
909.21099854	2.90196085
909.21502686	2.92156863
909.21911621	2.92156863
909.22326660	2.92156863
909.22326660	2.90196085
909.22735596	2.90196085
909.23132324	2.90196085
909.23547363	2.88235283
909.23547363	2.88235283
909.23956299	2.94117641
909.24371338	2.90196085
909.24371338	2.92156863
909.24774170	2.92156863
909.25201416	2.90196085
909.25598145	2.90196085
909.25598145	2.90196085
909.26013184	3.27450991
909.26416016	4.31372547
909.26824951	3.33333325
909.26824951	2.92156863
909.27246094	2.90196085
909.27661133	2.90196085
909.28070068	2.90196085
909.28466797	2.92156863
909.28881836	3.82352948
909.28881836	4.07843161
909.29296875	2.92156863
909.29699707	2.92156863
909.30114746	2.90196085
909.30114746	3.29411769
909.30511475	4.23529434
909.30932617	2.92156863
909.31335449	2.90196085
909.31335449	2.90196085
909.31750488	2.90196085
909.32153320	2.92156863
909.32568359	2.90196085
909.32983398	2.90196085
909.33392334	2.90196085
909.33392334	2.90196085
909.33807373	2.90196085
909.34210205	2.90196085
909.34619141	2.90196085
909.34619141	2.88235283
909.35028076	2.98039222
909.35437012	2.90196085
909.35845947	2.92156863
909.35845947	2.90196085
909.36254883	2.90196085
909.36663818	2.92156863
909.37078857	2.90196085
909.37475586	2.90196085
909.37902832	2.90196085
909.37902832	2.90196085
909.38305664	2.90196085
909.38714600	2.90196085
909.39129639	2.90196085
909.39129639	2.92156863
909.39532471	2.90196085
909.39941406	2.90196085
909.40356445	2.88235283
909.40356445	2.90196085
909.40771484	2.90196085
909.41168213	2.90196085
909.41583252	2.90196085
909.41998291	2.92156863
909.42401123	2.92156863
909.42401123	2.92156863
909.42797852	2.90196085
909.43218994	2.90196085
909.43634033	2.90196085
909.43634033	3.09803915
909.44036865	4.25490189
909.44451904	4.00000000
909.44854736	2.92156863
909.44854736	2.90196085
909.45269775	2.92156863
909.45678711	2.90196085
909.46087646	2.90196085
909.46502686	2.90196085
909.46899414	2.90196085
909.46899414	2.90196085
909.47308350	2.88235283
909.47723389	2.90196085
909.48132324	2.92156863
909.48132324	2.90196085
909.48541260	2.90196085
909.48956299	2.90196085
909.49365234	2.90196085
909.49365234	2.90196085
909.49774170	2.90196085
909.50177002	2.90196085
909.50604248	2.90196085
909.51007080	2.88235283
909.51422119	3.00000000
909.51422119	2.90196085
909.51818848	2.90196085
909.52233887	2.90196085
909.52642822	2.90196085
909.52642822	2.90196085
909.53057861	2.90196085
909.53454590	2.90196085
909.53881836	2.90196085
909.53881836	2.90196085
909.54278564	2.90196085
909.54687500	2.90196085
909.55102539	2.92156863
909.55499268	2.90196085
909.55920410	2.90196085
909.55920410	2.90196085
909.56323242	2.90196085
909.56738281	2.90196085
909.57147217	2.90196085
909.57147217	2.90196085
909.57550049	2.90196085
909.57958984	2.90196085
909.58374023	2.90196085
909.58374023	2.90196085
909.58789063	2.90196085
909.59204102	2.90196085
909.59204102	2.90196085
909.59600830	2.90196085
909.60021973	2.90196085
909.60430908	2.90196085
909.60430908	2.90196085
909.60827637	2.90196085
909.61236572	2.90196085
909.61651611	2.90196085
909.61651611	2.90196085
909.62066650	2.86274505
909.62463379	3.05882359
909.62872314	3.03921580
909.62872314	2.92156863
909.63287354	2.92156863
909.63702393	2.90196085
909.63702393	2.90196085
909.64111328	2.90196085
909.64514160	2.90196085
909.64923096	2.90196085
909.64923096	2.90196085
909.65338135	2.86274505
909.65753174	3.74509811
909.66168213	4.31372547
909.66168213	4.03921556
909.66571045	2.90196085
909.66979980	2.90196085
909.67388916	2.90196085
909.67388916	2.88235283
909.67797852	2.88235283
909.68218994	2.88235283
909.68218994	3.47058821
909.68615723	4.21568632
909.69018555	3.19607854
909.69427490	2.92156863
909.69427490	2.90196085
909.69836426	2.90196085
909.70251465	2.86274505
909.70666504	2.88235283
909.70666504	2.90196085
909.71075439	2.88235283
909.71490479	2.88235283
909.71899414	2.88235283
909.71899414	2.92156863
909.72302246	2.90196085
909.72717285	2.88235283
909.72717285	2.90196085
909.73132324	2.90196085
909.73529053	2.90196085
909.73937988	2.90196085
909.73937988	2.86274505
909.74353027	2.90196085
909.74768066	2.88235283
909.75170898	2.90196085
909.75170898	2.90196085
909.75573730	2.90196085
909.75988770	2.90196085
909.76397705	2.92156863
909.76800537	2.90196085
909.77215576	2.88235283
909.77215576	2.92156863
909.77624512	2.92156863
909.78039551	2.92156863
909.78448486	2.90196085
909.78448486	2.92156863
909.78851318	2.92156863
909.79266357	2.92156863
909.79675293	2.90196085
909.79675293	2.90196085
909.80090332	2.90196085
909.80505371	2.90196085
909.80902100	2.90196085
909.81304932	2.92156863
909.81726074	2.90196085
909.81726074	2.90196085
909.82141113	2.92156863
909.82537842	2.90196085
909.82946777	2.92156863
909.82946777	2.90196085
909.83361816	2.90196085
909.83776855	2.90196085
909.84185791	2.90196085
909.84185791	2.90196085
909.84606934	2.92156863
909.85003662	2.90196085
909.85418701	2.90196085
909.85827637	2.90196085
909.86224365	2.90196085
909.86224365	2.90196085
909.86639404	2.90196085
909.87042236	2.88235283
909.87457275	2.90196085
909.87457275	2.92156863
909.87860107	2.92156863
909.88269043	2.90196085
909.88690186	2.90196085
909.88690186	2.90196085
909.89099121	2.90196085
909.89514160	2.90196085
909.89904785	2.90196085
909.90325928	2.90196085
909.90740967	2.90196085
909.90740967	2.90196085
909.91156006	2.90196085
909.91558838	2.90196085
909.91967773	2.90196085
909.91967773	2.90196085
909.92376709	2.90196085
909.92791748	2.90196085
909.93194580	2.90196085
909.93194580	2.90196085
909.93597412	2.88235283
909.94012451	2.90196085
909.94427490	2.90196085
909.94824219	2.90196085
909.95239258	2.90196085
909.95239258	2.92156863
909.95648193	2.90196085
909.96063232	2.90196085
909.96478271	2.90196085
909.96478271	2.90196085
909.96875000	2.90196085
909.97308350	2.90196085
909.97705078	2.90196085
909.97705078	2.90196085
909.98114014	2.90196085
909.98522949	2.90196085
909.98919678	2.90196085
909.99328613	2.90196085
909.99743652	2.90196085
909.99743652	2.90196085
910.00164795	2.90196085
910.00561523	2.90196085
910.00976563	2.90196085
910.00976563	2.90196085
910.01385498	2.90196085
910.01800537	2.90196085
910.02215576	2.88235283
910.02215576	2.90196085
910.02612305	2.90196085
910.03027344	2.90196085
910.03442383	2.90196085
910.03851318	2.90196085
910.04254150	2.90196085
910.04254150	2.90196085
910.04663086	2.90196085
910.05072021	2.90196085
910.05480957	2.90196085
910.05480957	2.90196085
910.05895996	2.90196085
910.06298828	2.90196085
910.06713867	2.90196085
910.06713867	2.90196085
910.07128906	2.90196085
910.07537842	2.90196085
910.07537842	2.90196085
910.07940674	2.90196085
910.08349609	2.90196085
910.08764648	2.90196085
910.08764648	2.90196085
910.09173584	2.90196085
910.09570313	2.90196085
910.09991455	2.90196085
910.09991455	2.88235283
910.10400391	2.90196085
910.10803223	2.90196085
910.11230469	2.90196085
910.11230469	2.90196085
910.11627197	2.90196085
910.12048340	2.88235283
910.12048340	2.90196085
910.12457275	2.90196085
910.12854004	2.90196085
910.13269043	2.90196085
910.13269043	2.90196085
910.13684082	2.90196085
910.14093018	2.90196085
910.14508057	2.90196085
910.14508057	2.90196085
910.14910889	2.90196085
910.15319824	2.92156863
910.15728760	2.92156863
910.15728760	2.92156863
910.16143799	2.90196085
910.16558838	2.90196085
910.16558838	2.90196085
910.16949463	2.92156863
910.17364502	2.92156863
910.17779541	2.90196085
910.17779541	2.90196085
910.18194580	2.90196085
910.18603516	2.90196085
910.19000244	2.90196085
910.19000244	2.90196085
910.19415283	2.90196085
910.19830322	2.90196085
910.20245361	2.90196085
910.20245361	2.90196085
910.20642090	2.90196085
910.21057129	2.90196085
910.21057129	2.90196085
910.21466064	2.90196085
910.21868896	2.90196085
910.22277832	2.90196085
910.22277832	2.90196085
910.22692871	2.90196085
910.23101807	2.92156863
910.23510742	2.90196085
910.23510742	2.92156863
910.23925781	2.90196085
910.24328613	2.90196085
910.24737549	2.92156863
910.25152588	2.92156863
910.25567627	2.90196085
910.25567627	2.92156863
910.25970459	2.92156863
910.26379395	2.90196085
910.26788330	2.92156863
910.26788330	2.92156863
910.27209473	2.90196085
910.27606201	2.90196085
910.28015137	2.90196085
910.28015137	2.92156863
910.28430176	2.90196085
910.28845215	2.90196085
910.29254150	2.90196085
910.29650879	2.90196085
910.30059814	2.92156863
910.30059814	2.90196085
910.30487061	2.90196085
910.30889893	2.92156863
910.31298828	2.90196085
910.31298828	2.90196085
910.31701660	2.90196085
910.32116699	2.90196085
910.32531738	2.90196085
910.32531738	2.90196085
910.32928467	2.92156863
910.33343506	2.92156863
910.33752441	2.90196085
910.34167480	2.90196085
910.34576416	2.90196085
910.34576416	2.90196085
910.34985352	2.92156863
910.35394287	2.90196085
910.35803223	2.92156863
910.35803223	2.90196085
910.36199951	2.90196085
910.36621094	2.90196085
910.37023926	2.90196085
910.37023926	2.90196085
910.37438965	2.90196085
910.37841797	2.90196085
910.38250732	2.90196085
910.38665771	2.90196085
910.39074707	2.90196085
910.39074707	2.90196085
910.39489746	2.90196085
910.39904785	2.90196085
910.40301514	2.90196085
910.40301514	2.92156863
910.40710449	2.92156863
910.41125488	2.92156863
910.41528320	2.90196085
910.41528320	2.90196085
910.41937256	2.90196085
910.42340088	2.90196085
910.42761230	2.90196085
910.43176270	2.90196085
910.43591309	2.90196085
910.43591309	2.90196085
910.44000244	2.90196085
910.44396973	2.90196085
910.44812012	2.90196085
910.44812012	2.90196085
910.45214844	2.92156863
910.45623779	2.90196085
910.46032715	2.92156863
910.46032715	2.90196085
910.46447754	2.90196085
910.46856689	2.90196085
910.47259521	2.90196085
910.47668457	2.92156863
910.48083496	2.90196085
910.48083496	2.90196085
910.48498535	2.90196085
910.48895264	2.90196085
910.49304199	2.90196085
910.49304199	2.90196085
910.49725342	2.90196085
910.50140381	2.90196085
910.50549316	2.90196085
910.50549316	2.90196085
910.50952148	2.90196085
910.51361084	2.92156863
910.51776123	2.90196085
910.52191162	2.90196085
910.52600098	2.92156863
910.52600098	2.90196085
910.53002930	2.90196085
910.53411865	2.90196085
910.53820801	2.90196085
910.53820801	2.90196085
910.54229736	2.90196085
910.54632568	2.92156863
910.55047607	2.92156863
910.55047607	2.92156863
910.55462646	2.90196085
910.55877686	2.92156863
910.55877686	2.92156863
910.56274414	2.92156863
910.56701660	2.92156863
910.57098389	2.92156863
910.57098389	2.90196085
910.57513428	2.90196085
910.57916260	2.92156863
910.58331299	2.92156863
910.58331299	2.90196085
910.58740234	2.90196085
910.59155273	2.92156863
910.59564209	2.90196085
910.59564209	2.90196085
910.59967041	2.90196085
910.60375977	2.92156863
910.60375977	2.92156863
910.60784912	2.92156863
910.61206055	2.92156863
910.61614990	2.92156863
910.61614990	2.92156863
910.62011719	2.90196085
910.62426758	2.90196085
910.62841797	2.90196085
910.62841797	2.92156863
910.63256836	2.90196085
910.63653564	2.90196085
910.64062500	2.90196085
910.64062500	2.92156863
910.64477539	2.92156863
910.64892578	2.92156863
910.64892578	2.92156863
910.65307617	2.92156863
910.65704346	2.92156863
910.66119385	2.90196085
910.66119385	2.90196085
910.66528320	2.90196085
910.66925049	2.92156863
910.67340088	2.92156863
910.67340088	2.92156863
910.67755127	2.92156863
910.68164063	2.90196085
910.68579102	2.90196085
910.68579102	2.92156863
910.68975830	2.92156863
910.69403076	2.92156863
910.69403076	2.92156863
910.69805908	2.92156863
910.70214844	2.90196085
910.70623779	2.90196085
910.70623779	2.92156863
910.71026611	2.92156863
910.71441650	2.92156863
910.71856689	2.92156863
910.71856689	2.92156863
910.72253418	2.90196085
910.72662354	2.92156863
910.73071289	2.92156863
910.73486328	2.92156863
910.73907471	2.92156863
910.73907471	2.90196085
910.74298096	2.92156863
910.74713135	2.92156863
910.75128174	2.92156863
910.75128174	2.92156863
910.75543213	2.92156863
910.75939941	2.92156863
910.76354980	2.92156863
910.76354980	2.92156863
910.76763916	2.92156863
910.77178955	2.92156863
910.77593994	2.90196085
910.78002930	2.92156863
910.78405762	2.92156863
910.78405762	2.92156863
910.78820801	2.92156863
910.79223633	2.92156863
910.79638672	2.92156863
910.79638672	2.92156863
910.80041504	2.90196085
910.80456543	2.90196085
910.80859375	2.92156863
910.80859375	2.92156863
910.81262207	2.92156863
910.81671143	2.92156863
910.82098389	2.92156863
910.82501221	2.90196085
910.82910156	2.92156863
910.82910156	2.92156863
910.83306885	2.92156863
910.83721924	2.92156863
910.84130859	2.92156863
910.84130859	2.92156863
910.84558105	2.92156863
910.84948730	2.92156863
910.85363770	2.92156863
910.85363770	2.92156863
910.85778809	2.92156863
910.86193848	2.90196085
910.86602783	2.92156863
910.86999512	2.92156863
910.87414551	2.92156863
910.87414551	2.92156863
910.87829590	2.92156863
910.88250732	2.90196085
910.88659668	2.90196085
910.88659668	2.90196085
910.89050293	2.90196085
910.89465332	2.92156863
910.89880371	2.90196085
910.89880371	2.92156863
910.90301514	2.92156863
910.90704346	2.92156863
910.91107178	2.90196085
910.91516113	2.90196085
910.91925049	2.88235283
910.91925049	2.90196085
910.92327881	2.90196085
910.92736816	2.92156863
910.93145752	2.92156863
910.93145752	2.92156863
910.93554688	2.90196085
910.93957520	2.90196085
910.94372559	2.90196085
910.94372559	2.90196085
910.94787598	2.90196085
910.95202637	2.92156863
910.95611572	2.92156863
910.96008301	2.90196085
910.96423340	2.92156863
910.96423340	2.92156863
910.96844482	2.90196085
910.97253418	2.92156863
910.97662354	2.90196085
910.97662354	2.90196085
910.98059082	2.90196085
910.98480225	2.90196085
910.98889160	2.92156863
910.98889160	2.92156863
910.99298096	2.92156863
910.99694824	2.90196085
910.99694824	2.90196085
911.00115967	2.90196085
911.00524902	2.90196085
911.00939941	2.90196085
911.00939941	2.90196085
911.01336670	2.90196085
911.01745605	2.90196085
911.02160645	2.90196085
911.02160645	2.90196085
911.02575684	2.90196085
911.02978516	2.90196085
911.03405762	2.90196085
911.03405762	2.90196085
911.03802490	2.90196085
911.04211426	2.90196085
911.04211426	2.92156863
911.04626465	2.92156863
911.05029297	2.92156863
911.05444336	2.92156863
911.05444336	2.92156863
911.05841064	2.90196085
911.06262207	2.90196085
911.06677246	2.92156863
911.06677246	2.90196085
911.07073975	2.92156863
911.07489014	2.92156863
911.07897949	2.92156863
911.07897949	2.90196085
911.08294678	2.92156863
911.08709717	2.92156863
911.08709717	2.92156863
911.09124756	2.92156863
911.09539795	2.92156863
911.09954834	2.90196085
911.09954834	2.90196085
911.10345459	2.90196085
911.10760498	2.90196085
911.11181641	2.90196085
911.11181641	2.92156863
911.11578369	2.92156863
911.11999512	2.90196085
911.12390137	2.90196085
911.12390137	2.90196085
911.12811279	2.90196085
911.13220215	2.92156863
911.13220215	2.92156863
911.13635254	2.92156863
911.14031982	2.90196085
911.14447021	2.90196085
911.14447021	2.92156863
911.14862061	2.92156863
911.15277100	2.90196085
911.15692139	3.00000000
911.15692139	2.90196085
911.16107178	2.90196085
911.16503906	2.90196085
911.16912842	2.92156863
911.16912842	2.90196085
911.17315674	2.88235283
911.17718506	3.25490189
911.17718506	4.29411745
911.18133545	4.25490189
911.18554688	2.92156863
911.18963623	2.92156863
911.18963623	2.92156863
911.19360352	2.90196085
911.19769287	2.90196085
911.20190430	2.96078420
911.20190430	2.90196085
911.20599365	2.92156863
911.20996094	2.92156863
911.21417236	2.92156863
911.21826172	2.90196085
911.22241211	2.90196085
911.22241211	2.88235283
911.22637939	3.70588231
911.23046875	4.33333349
911.23461914	4.33333349
911.23461914	3.35294127
911.23876953	2.92156863
911.24285889	2.92156863
911.24700928	2.92156863
911.24700928	2.90196085
911.25103760	3.21568632
911.25518799	4.37254906
911.25927734	2.92156863
911.26330566	2.90196085
911.26739502	2.92156863
911.26739502	2.90196085
911.27154541	2.90196085
911.27563477	3.31372547
911.27972412	4.29411745
911.27972412	4.19607830
911.28387451	4.23529434
911.28802490	2.90196085
911.29199219	2.92156863
911.29199219	2.90196085
911.29614258	2.90196085
911.30017090	3.11764717
911.30419922	4.31372547
911.30834961	4.33333349
911.31250000	2.92156863
911.31250000	2.92156863
911.31677246	2.92156863
911.32067871	2.90196085
911.32476807	2.90196085
911.32476807	2.92156863
911.32891846	3.27450991
911.33300781	4.21568632
911.33703613	4.01960802
911.33703613	2.90196085
911.34118652	2.90196085
911.34533691	2.90196085
911.34936523	2.88235283
911.35333252	4.37254906
911.35748291	4.43137264
911.35748291	4.29411745
911.36163330	2.92156863
911.36572266	2.92156863
911.36987305	2.92156863
911.36987305	2.90196085
911.37402344	2.90196085
911.37805176	3.01960778
911.38220215	3.15686274
911.38220215	3.33333325
911.38635254	3.00000000
911.39044189	2.92156863
911.39440918	3.00000000
911.39855957	3.23529410
911.40264893	2.90196085
911.40264893	3.01960778
911.40679932	4.27450991
911.41076660	2.92156863
911.41497803	2.92156863
911.41497803	2.90196085
911.41900635	3.13725495
911.42315674	4.35294104
911.42712402	3.98039222
911.42712402	2.90196085
911.43127441	2.90196085
911.43536377	2.92156863
911.43951416	2.90196085
911.44354248	2.90196085
911.44769287	2.90196085
911.44769287	2.90196085
911.45184326	2.90196085
911.45593262	2.90196085
911.46008301	2.90196085
911.46008301	2.90196085
911.46405029	2.90196085
911.46813965	3.21568632
911.47229004	4.25490189
911.47229004	3.41176462
911.47637939	2.92156863
911.48046875	2.92156863
911.48046875	2.92156863
911.48449707	2.90196085
911.48864746	3.35294127
911.49273682	2.90196085
911.49273682	2.90196085
911.49670410	2.90196085
911.50103760	2.90196085
911.50500488	3.92156863
911.50500488	4.25490189
911.50915527	2.90196085
911.51330566	2.92156863
911.51727295	2.92156863
911.51727295	2.90196085
911.52142334	2.90196085
911.52551270	2.86274505
911.52551270	2.86274505
911.52966309	3.15686274
911.53375244	2.90196085
911.53778076	2.92156863
911.53778076	3.35294127
911.54187012	4.15686274
911.54602051	2.92156863
911.55023193	2.90196085
911.55023193	2.90196085
911.55413818	2.90196085
911.55822754	2.92156863
911.56243896	2.92156863
911.56243896	2.92156863
911.56646729	2.90196085
911.57061768	3.50980401
911.57061768	4.35294104
911.57452393	4.37254906
911.57867432	2.92156863
911.58282471	2.92156863
911.58282471	2.92156863
911.58697510	2.92156863
911.59094238	2.90196085
911.59509277	3.45098042
911.59509277	4.39215708
911.59912109	4.27450991
911.60327148	3.76470590
911.60729980	2.92156863
911.60729980	2.92156863
911.61145020	2.92156863
911.61560059	2.90196085
911.61560059	2.90196085
911.61968994	3.74509811
911.62365723	4.35294104
911.62799072	4.19607830
911.62799072	2.92156863
911.63189697	2.92156863
911.63610840	2.90196085
911.64019775	2.90196085
911.64019775	2.90196085
911.64422607	2.90196085
911.64837646	2.90196085
911.65240479	4.35294104
911.65240479	4.35294104
911.65655518	2.92156863
911.66064453	2.90196085
911.66064453	2.92156863
911.66467285	2.92156863
911.66882324	2.90196085
911.67297363	2.90196085
911.67297363	2.96078420
911.67700195	4.33333349
911.68109131	3.09803915
911.68518066	2.90196085
911.68518066	2.88235283
911.68939209	2.92156863
911.69348145	2.92156863
911.69757080	2.88235283
911.70159912	3.41176462
911.70581055	2.90196085
911.70581055	2.90196085
911.70989990	2.92156863
911.71398926	2.92156863
911.71795654	2.90196085
911.71795654	2.90196085
911.72216797	2.90196085
911.72625732	2.90196085
911.73034668	2.90196085
911.73034668	2.90196085
911.73437500	2.92156863
911.73852539	4.43137264
911.74261475	2.92156863
911.74664307	2.92156863
911.75085449	2.92156863
911.75085449	2.90196085
911.75494385	2.90196085
911.75897217	2.88235283
911.76306152	2.90196085
911.76306152	2.88235283
911.76708984	3.07843137
911.77117920	2.90196085
911.77532959	2.88235283
911.77532959	3.43137264
911.77947998	2.92156863
911.78350830	2.92156863
911.78753662	2.92156863
911.79162598	2.90196085
911.79583740	3.01960778
911.79583740	4.29411745
911.79998779	4.37254906
911.80395508	4.21568632
911.80810547	2.92156863
911.80810547	2.92156863
911.81219482	2.92156863
911.81628418	2.90196085
911.82049561	2.90196085
911.82049561	3.09803915
911.82446289	4.27450991
911.82861328	4.19607830
911.83270264	2.92156863
911.83685303	2.92156863
911.84100342	2.90196085
911.84100342	2.90196085
911.84503174	2.90196085
911.84912109	2.90196085
911.85321045	2.90196085
911.85321045	2.92156863
911.85723877	3.98039222
911.86138916	4.21568632
911.86553955	2.90196085
911.86553955	2.90196085
911.86956787	2.92156863
911.87365723	2.90196085
911.87768555	4.27450991
911.88195801	2.92156863
911.88598633	2.92156863
911.88598633	2.90196085
911.89013672	2.90196085
911.89410400	2.90196085
911.89819336	2.90196085
911.89819336	2.90196085
911.90240479	2.90196085
911.90649414	2.90196085
911.91064453	2.86274505
911.91064453	2.92156863
911.91461182	2.90196085
911.91870117	2.90196085
911.92291260	2.90196085
911.92687988	2.88235283
911.93103027	4.29411745
911.93103027	4.21568632
911.93511963	2.92156863
911.93920898	2.90196085
911.94335938	2.90196085
911.94335938	2.90196085
911.94738770	2.90196085
911.95147705	2.90196085
911.95556641	2.88235283
911.95556641	2.90196085
911.95971680	2.90196085
911.96386719	2.90196085
911.96386719	2.90196085
911.96801758	2.90196085
911.97204590	2.88235283
911.97613525	2.90196085
911.97613525	2.90196085
911.98022461	2.90196085
911.98425293	2.90196085
911.98834229	2.90196085
911.98834229	2.90196085
911.99243164	2.90196085
911.99664307	2.90196085
912.00073242	2.90196085
912.00073242	2.90196085
912.00469971	2.90196085
912.00897217	2.90196085
912.00897217	2.90196085
912.01293945	2.90196085
912.01708984	2.90196085
912.02124023	2.90196085
912.02124023	2.90196085
912.02520752	2.90196085
912.02941895	2.90196085
912.03356934	2.88235283
912.03356934	2.90196085
912.03747559	2.90196085
912.04162598	2.90196085
912.04571533	2.90196085
912.04571533	2.92156863
912.04980469	2.90196085
912.05395508	2.90196085
912.05395508	2.88235283
912.05798340	3.39215684
912.06207275	3.37254906
912.06616211	2.92156863
912.06616211	2.90196085
912.07037354	2.90196085
912.07434082	2.92156863
912.07849121	2.90196085
912.07849121	2.90196085
912.08258057	2.90196085
912.08673096	2.90196085
912.09088135	2.90196085
912.09088135	2.88235283
912.09503174	2.90196085
912.09906006	2.90196085
912.09906006	2.92156863
912.10308838	2.90196085
912.10723877	2.92156863
912.11114502	2.90196085
912.11114502	2.90196085
912.11529541	2.90196085
912.11950684	2.90196085
912.12359619	2.90196085
912.12359619	2.88235283
912.12762451	2.90196085
912.13171387	2.92156863
912.13598633	2.90196085
912.13598633	2.90196085
912.14001465	2.90196085
912.14410400	2.90196085
912.14410400	2.88235283
912.14807129	2.90196085
912.15216064	2.90196085
912.15631104	2.90196085
912.15631104	2.90196085
912.16040039	2.90196085
912.16442871	2.90196085
912.16857910	2.88235283
912.16857910	2.90196085
912.17272949	2.90196085
912.17681885	2.90196085
912.18096924	2.88235283
912.18499756	2.90196085
912.18908691	2.90196085
912.18908691	2.86274505
912.19323730	2.90196085
912.19732666	3.11764717
912.20135498	3.21568632
912.20135498	2.94117641
912.20556641	2.90196085
912.20965576	2.88235283
912.21374512	2.86274505
912.21374512	2.88235283
912.21777344	3.23529410
912.22204590	3.43137264
912.22601318	4.27450991
912.23010254	3.47058821
912.23425293	2.90196085
912.23425293	2.90196085
912.23822021	2.88235283
912.24237061	2.90196085
912.24645996	2.90196085
912.24645996	2.90196085
912.25067139	2.90196085
912.25463867	2.90196085
912.25878906	2.90196085
912.25878906	2.90196085
912.26293945	2.90196085
912.26702881	2.90196085
912.27117920	2.90196085
912.27514648	2.90196085
912.27929688	2.90196085
912.27929688	2.90196085
912.28338623	2.90196085
912.28753662	2.90196085
912.29150391	2.90196085
912.29150391	2.90196085
912.29565430	2.90196085
912.29974365	2.90196085
912.30383301	2.90196085
912.30383301	2.90196085
912.30798340	2.90196085
912.31201172	2.90196085
912.31604004	2.90196085
912.32019043	2.90196085
912.32434082	2.90196085
912.32434082	2.90196085
912.32836914	2.90196085
912.33239746	2.90196085
912.33660889	2.90196085
912.33660889	2.90196085
912.34075928	2.90196085
912.34472656	2.90196085
912.34899902	2.92156863
912.34899902	2.90196085
912.35302734	2.90196085
912.35711670	2.90196085
912.36126709	2.90196085
912.36523438	2.90196085
912.36932373	2.90196085
912.36932373	2.90196085
912.37353516	2.90196085
912.37750244	2.90196085
912.38153076	2.90196085
912.38153076	2.90196085
912.38568115	2.90196085
912.38983154	2.90196085
912.39398193	2.90196085
912.39398193	2.90196085
912.39794922	2.90196085
912.40209961	2.90196085
912.40625000	2.90196085
912.41033936	2.90196085
912.41455078	2.90196085
912.41455078	2.90196085
912.41851807	2.90196085
912.42266846	2.90196085
912.42675781	2.90196085
912.42675781	2.90196085
912.43084717	2.90196085
912.43505859	2.90196085
912.43902588	2.90196085
912.43902588	2.88235283
912.44311523	2.90196085
912.44720459	2.90196085
912.45129395	2.90196085
912.45538330	2.90196085
912.45953369	2.90196085
912.45953369	2.90196085
912.46368408	2.90196085
912.46777344	2.90196085
912.47180176	2.90196085
912.47180176	2.90196085
912.47601318	2.90196085
912.47998047	2.90196085
912.48413086	2.90196085
912.48413086	2.92156863
912.48809814	2.90196085
912.49218750	2.90196085
912.49218750	2.90196085
912.49639893	2.90196085
912.50048828	2.90196085
912.50457764	2.90196085
912.50457764	2.90196085
912.50860596	2.90196085
912.51275635	2.90196085
912.51702881	2.90196085
912.51702881	2.88235283
912.52105713	2.90196085
912.52502441	2.90196085
912.52911377	2.90196085
912.52911377	2.88235283
912.53326416	2.90196085
912.53753662	2.88235283
912.53753662	2.88235283
912.54138184	2.90196085
912.54553223	2.90196085
912.54962158	2.90196085
912.54962158	2.90196085
912.55371094	2.90196085
912.55780029	2.88235283
912.56188965	2.90196085
912.56188965	2.90196085
912.56591797	2.90196085
912.57006836	2.90196085
912.57421875	2.90196085
912.57421875	2.90196085
912.57824707	2.90196085
912.58239746	2.90196085
912.58239746	2.90196085
912.58648682	2.90196085
912.59063721	2.90196085
912.59472656	2.90196085
912.59472656	2.90196085
912.59875488	2.90196085
912.60284424	2.90196085
912.60693359	2.90196085
912.60693359	2.90196085
912.61102295	2.86274505
912.61517334	2.90196085
912.61926270	2.88235283
912.61926270	2.94117641
912.62335205	2.92156863
912.62750244	2.88235283
912.62750244	2.88235283
912.63153076	2.90196085
912.63568115	3.03921580
912.63977051	3.33333325
912.63977051	3.50980401
912.64392090	3.60784316
912.64801025	3.41176462
912.65203857	3.15686274
912.65203857	3.23529410
912.65618896	3.72549009
912.66027832	4.25490189
912.66436768	4.21568632
912.66839600	4.19607830
912.67248535	4.19607830
912.67248535	4.21568632
912.67657471	4.21568632
912.68072510	4.15686274
912.68487549	4.13725471
912.68487549	4.15686274
912.68896484	4.13725471
912.69299316	4.11764717
912.69708252	4.13725471
912.69708252	4.21568632
912.70129395	4.19607830
912.70526123	4.13725471
912.70935059	2.88235283
912.71350098	2.90196085
912.71759033	3.13725495
912.71759033	3.49019599
912.72167969	3.39215684
912.72570801	2.98039222
912.72998047	2.88235283
912.72998047	2.86274505
912.73400879	2.88235283
912.73809814	3.00000000
912.74206543	3.19607854
912.74206543	2.96078420
912.74627686	2.90196085
912.75036621	2.90196085
912.75445557	2.88235283
912.75848389	2.88235283
912.76263428	2.90196085
912.76263428	2.90196085
912.76690674	2.90196085
912.77087402	2.90196085
912.77502441	2.90196085
912.77502441	2.90196085
912.77899170	2.90196085
912.78314209	2.90196085
912.78729248	2.90196085
912.78729248	2.90196085
912.79138184	2.90196085
912.79541016	2.90196085
912.79949951	2.90196085
912.80358887	2.90196085
912.80773926	2.90196085
912.80773926	2.90196085
912.81176758	2.90196085
912.81597900	2.90196085
912.82000732	2.88235283
912.82000732	2.88235283
912.82415771	2.88235283
912.82830811	2.90196085
912.83227539	2.90196085
912.83227539	2.90196085
912.83642578	2.90196085
912.84051514	2.90196085
912.84466553	2.90196085
912.84863281	2.90196085
912.85278320	2.90196085
912.85278320	2.90196085
912.85687256	2.90196085
912.86096191	2.90196085
912.86511230	2.92156863
912.86511230	2.90196085
912.86914063	2.92156863
912.87329102	2.90196085
912.87731934	2.90196085
912.87731934	2.90196085
912.88146973	2.90196085
912.88549805	2.90196085
912.88964844	2.92156863
912.89379883	2.92156863
912.89788818	2.90196085
912.89788818	2.90196085
912.90203857	2.90196085
912.90600586	2.92156863
912.91009521	2.90196085
912.91009521	2.90196085
912.91424561	2.90196085
912.91839600	2.90196085
912.92236328	2.90196085
912.92236328	2.90196085
912.92645264	2.92156863
912.93060303	2.90196085
912.93475342	2.90196085
912.93872070	2.90196085
912.94299316	2.90196085
912.94299316	2.90196085
912.94696045	2.92156863
912.95111084	2.92156863
912.95520020	2.90196085
912.95520020	2.92156863
912.95922852	2.90196085
912.96331787	2.90196085
912.96746826	2.90196085
912.96746826	2.90196085
912.97161865	2.92156863
912.97564697	2.90196085
912.97564697	2.90196085
912.97973633	2.90196085
912.98388672	2.90196085
912.98797607	2.90196085
912.98797607	2.90196085
912.99194336	2.92156863
912.99609375	2.90196085
913.00024414	2.90196085
913.00024414	2.90196085
913.00433350	2.90196085
913.00830078	2.90196085
913.01245117	2.90196085
913.01245117	2.92156863
913.01660156	2.90196085
913.02075195	2.92156863
913.02075195	2.90196085
913.02484131	2.92156863
913.02899170	2.92156863
913.03295898	2.92156863
913.03295898	2.92156863
913.03735352	2.92156863
913.04125977	2.92156863
913.04541016	2.92156863
913.04541016	2.92156863
913.04937744	2.92156863
913.05346680	2.92156863
913.05761719	2.92156863
913.05761719	2.92156863
913.06170654	2.92156863
913.06561279	2.92156863
913.06561279	2.92156863
913.06994629	2.90196085
913.07391357	2.90196085
913.07806396	2.92156863
913.07806396	2.92156863
913.08209229	2.92156863
913.08624268	2.92156863
913.09033203	2.92156863
913.09033203	2.90196085
913.09448242	2.90196085
913.09857178	2.92156863
913.10266113	2.92156863
913.10266113	2.92156863
913.10693359	2.92156863
913.11090088	2.92156863
913.11090088	2.92156863
913.11492920	2.92156863
913.11901855	2.92156863
913.12310791	2.92156863
913.12310791	2.92156863
913.12707520	2.92156863
913.13122559	2.92156863
913.13543701	2.92156863
913.13543701	2.90196085
913.13946533	2.92156863
913.14355469	2.90196085
913.14770508	2.92156863
913.15179443	2.90196085
913.15594482	2.92156863
913.15594482	2.90196085
913.15985107	2.92156863
913.16400146	2.92156863
913.16821289	2.92156863
913.16821289	2.92156863
913.17211914	2.92156863
913.17626953	2.90196085
913.18041992	2.90196085
913.18041992	2.90196085
913.18457031	2.92156863
913.18865967	2.92156863
913.19262695	2.90196085
913.19683838	2.90196085
913.20098877	2.90196085
913.20098877	2.90196085
913.20513916	2.90196085
913.20904541	2.90196085
913.21313477	2.90196085
913.21313477	2.90196085
913.21740723	2.90196085
913.22149658	2.92156863
913.22558594	2.92156863
913.22558594	2.90196085
913.22961426	2.90196085
913.23376465	2.90196085
913.23785400	2.90196085
913.24194336	2.90196085
913.24603271	2.92156863
913.24603271	2.92156863
913.25024414	2.90196085
913.25427246	2.90196085
913.25830078	2.90196085
913.25830078	2.90196085
913.26232910	2.90196085
913.26641846	2.90196085
913.27062988	2.90196085
913.27062988	2.90196085
913.27459717	2.90196085
913.27886963	2.90196085
913.28295898	2.92156863
913.28698730	2.92156863
913.29113770	2.92156863
913.29113770	2.90196085
913.29522705	2.90196085
913.29925537	2.90196085
913.30334473	2.90196085
913.30334473	2.90196085
913.30743408	2.92156863
913.31152344	2.92156863
913.31567383	2.90196085
913.31567383	2.90196085
913.31970215	2.90196085
913.32397461	2.90196085
913.32794189	2.88235283
913.33209229	2.86274505
913.33612061	2.90196085
913.33612061	2.90196085
913.34020996	2.90196085
913.34429932	2.90196085
913.34838867	2.90196085
913.34838867	2.90196085
913.35247803	2.88235283
913.35650635	2.86274505
913.36065674	2.90196085
913.36065674	2.90196085
913.36486816	2.90196085
913.36901855	2.90196085
913.37292480	2.90196085
913.37707520	2.86274505
913.38122559	2.90196085
913.38122559	2.90196085
913.38537598	2.92156863
913.38934326	2.92156863
913.39343262	2.92156863
913.39343262	2.90196085
913.39758301	2.90196085
913.40173340	2.88235283
913.40582275	2.90196085
913.40582275	2.92156863
913.40997314	2.92156863
913.41400146	2.90196085
913.41809082	2.92156863
913.42224121	2.92156863
913.42626953	2.92156863
913.42626953	2.92156863
913.43035889	2.92156863
913.43450928	2.90196085
913.43859863	2.90196085
913.43859863	2.90196085
913.44256592	2.90196085
913.44671631	2.90196085
913.45098877	2.90196085
913.45098877	2.90196085
913.45501709	2.90196085
913.45916748	2.90196085
913.45916748	2.90196085
913.46313477	2.90196085
913.46722412	2.90196085
913.47137451	2.92156863
913.47137451	2.92156863
913.47546387	2.90196085
913.47949219	2.90196085
913.48370361	2.90196085
913.48370361	2.90196085
913.48773193	2.90196085
913.49182129	2.90196085
913.49603271	2.92156863
913.49603271	2.90196085
913.50000000	2.92156863
913.50396729	2.90196085
913.50396729	2.90196085
913.50817871	2.90196085
913.51232910	3.15686274
913.51629639	2.90196085
913.51629639	2.92156863
913.52044678	2.90196085
913.52459717	2.92156863
913.52874756	2.90196085
913.52874756	2.90196085
913.53265381	2.90196085
913.53710938	2.90196085
913.54101563	2.90196085
913.54101563	2.92156863
913.54516602	2.90196085
913.54919434	2.90196085
913.54919434	2.90196085
913.55316162	2.92156863
913.55737305	2.90196085
913.56146240	2.90196085
913.56146240	2.90196085
913.56549072	2.92156863
913.56958008	2.92156863
913.57366943	2.90196085
913.57366943	2.90196085
913.57781982	2.90196085
913.58197021	2.90196085
913.58612061	2.92156863
913.58612061	2.90196085
913.59008789	2.90196085
913.59423828	2.90196085
913.59423828	2.92156863
913.59832764	2.92156863
913.60253906	2.90196085
913.60650635	2.92156863
913.60650635	2.90196085
913.61059570	2.90196085
913.61474609	2.90196085
913.61883545	2.90196085
913.61883545	2.92156863
913.62298584	2.92156863
913.62689209	2.92156863
913.63104248	2.86274505
913.63525391	3.11764717
913.63934326	2.96078420
913.63934326	2.92156863
913.64331055	2.92156863
913.64746094	2.92156863
913.65155029	2.90196085
913.65155029	2.90196085
913.65570068	3.19607854
913.65972900	4.29411745
913.66400146	3.96078420
913.66400146	2.90196085
913.66796875	2.92156863
913.67211914	2.92156863
913.67608643	2.90196085
913.68017578	3.19607854
913.68432617	3.98039222
913.68432617	2.90196085
913.68835449	2.92156863
913.69238281	2.92156863
913.69659424	2.92156863
913.69659424	2.90196085
913.70074463	2.90196085
913.70483398	2.88235283
913.70898438	2.88235283
913.70898438	2.90196085
913.71295166	2.90196085
