618.43267822	4.35294104
618.43682861	4.33333349
618.43682861	4.35294104
618.44091797	4.33333349
618.44506836	4.35294104
618.44915771	4.35294104
618.44915771	4.35294104
618.45312500	4.35294104
618.45727539	4.35294104
618.46142578	4.35294104
618.46142578	4.35294104
618.46551514	4.35294104
618.46954346	4.35294104
618.47363281	4.35294104
618.47772217	4.35294104
618.48187256	4.35294104
618.48187256	4.35294104
618.48596191	4.35294104
618.49005127	4.35294104
618.49414063	4.35294104
618.49414063	4.35294104
618.49829102	4.35294104
618.50225830	4.35294104
618.50653076	4.35294104
618.50653076	4.35294104
618.51062012	4.35294104
618.51470947	4.35294104
618.51885986	4.35294104
618.52282715	4.35294104
618.52697754	4.35294104
618.52697754	4.35294104
618.53106689	4.35294104
618.53521729	4.35294104
618.53930664	4.35294104
618.53930664	4.35294104
618.54333496	4.35294104
618.54748535	4.35294104
618.55157471	4.35294104
618.55157471	4.35294104
618.55566406	4.35294104
618.55969238	4.35294104
618.56378174	4.35294104
618.56781006	4.35294104
618.57202148	4.35294104
618.57202148	4.35294104
618.57604980	4.35294104
618.58013916	4.35294104
618.58428955	4.35294104
618.58428955	4.35294104
618.58843994	4.35294104
618.59252930	4.35294104
618.59643555	4.33333349
618.59643555	4.35294104
618.60064697	4.35294104
618.60473633	4.35294104
618.60888672	4.35294104
618.61285400	4.35294104
618.61700439	4.33333349
618.61700439	4.35294104
618.62115479	4.35294104
618.62530518	4.35294104
618.62939453	4.35294104
618.62939453	4.35294104
618.63354492	4.35294104
618.63751221	4.35294104
618.64166260	4.35294104
618.64166260	4.35294104
618.64562988	4.37254906
618.64984131	4.37254906
618.65399170	4.37254906
618.65808105	4.37254906
618.66223145	4.35294104
618.66223145	4.37254906
618.66619873	4.35294104
618.67028809	4.35294104
618.67437744	4.35294104
618.67437744	4.37254906
618.67852783	4.35294104
618.68255615	4.35294104
618.68670654	4.37254906
618.68670654	4.37254906
618.69079590	4.35294104
618.69488525	4.35294104
618.69488525	4.35294104
618.69903564	4.35294104
618.70312500	4.37254906
618.70721436	4.35294104
618.70721436	4.35294104
618.71136475	4.35294104
618.71545410	4.35294104
618.71960449	4.35294104
618.71960449	4.35294104
618.72363281	4.35294104
618.72772217	4.35294104
618.73181152	4.35294104
618.73181152	4.35294104
618.73608398	4.35294104
618.73992920	4.35294104
618.73992920	4.37254906
618.74401855	4.35294104
618.74816895	4.35294104
618.75225830	4.35294104
618.75225830	4.35294104
618.75628662	4.35294104
618.76055908	4.35294104
618.76458740	4.35294104
618.76458740	4.35294104
618.76873779	4.35294104
618.77282715	4.35294104
618.77685547	4.35294104
618.77685547	4.35294104
618.78094482	4.35294104
618.78509521	4.35294104
618.78509521	4.35294104
618.78918457	4.35294104
618.79315186	4.35294104
618.79730225	4.35294104
618.79730225	4.35294104
618.80139160	4.35294104
618.80548096	4.35294104
618.80963135	4.35294104
618.80963135	4.35294104
618.81365967	4.35294104
618.81781006	4.35294104
618.82189941	4.35294104
618.82189941	4.35294104
618.82604980	4.35294104
618.83001709	4.35294104
618.83001709	4.35294104
618.83416748	4.35294104
618.83825684	4.35294104
618.84240723	4.35294104
618.84240723	4.35294104
618.84643555	4.35294104
618.85046387	4.35294104
618.85467529	4.35294104
618.85467529	4.35294104
618.85870361	4.35294104
618.86273193	4.35294104
618.86688232	4.35294104
618.86688232	4.35294104
618.87103271	4.35294104
618.87518311	4.35294104
618.87518311	4.35294104
618.87927246	4.35294104
618.88323975	4.35294104
618.88751221	4.35294104
618.88751221	4.35294104
618.89154053	4.35294104
618.89569092	4.35294104
618.89978027	4.35294104
618.89978027	4.35294104
618.90380859	4.35294104
618.90795898	4.35294104
618.91204834	4.35294104
618.91613770	4.35294104
618.92010498	4.35294104
618.92010498	4.35294104
618.92419434	4.35294104
618.92834473	4.35294104
618.93255615	4.35294104
618.93255615	4.35294104
618.93652344	4.35294104
618.94067383	4.35294104
618.94476318	4.35294104
618.94476318	4.35294104
618.94891357	4.35294104
618.95300293	4.35294104
618.95703125	4.35294104
618.96112061	4.35294104
618.96533203	4.35294104
618.96533203	4.35294104
618.96954346	4.35294104
618.97357178	4.35294104
618.97753906	4.35294104
618.97753906	4.35294104
618.98162842	4.35294104
618.98571777	4.35294104
618.98986816	4.35294104
618.98986816	4.31372547
618.99389648	4.31372547
618.99804688	4.35294104
619.00219727	4.35294104
619.00616455	4.27450991
619.01025391	4.25490189
619.01025391	4.29411745
619.01440430	4.31372547
619.01855469	4.29411745
619.02264404	4.29411745
619.02264404	4.15686274
619.02661133	4.23529434
619.03076172	4.17647076
619.03485107	4.23529434
619.03485107	4.21568632
619.03900146	4.21568632
619.04309082	4.15686274
619.04711914	2.86274505
619.05126953	2.86274505
619.05535889	2.88235283
619.05535889	2.84313726
619.05950928	2.86274505
619.06353760	2.88235283
619.06762695	2.88235283
619.06762695	2.88235283
619.07177734	2.88235283
619.07598877	2.88235283
619.08007813	2.88235283
619.08007813	2.86274505
619.08404541	2.88235283
619.08819580	2.88235283
619.09234619	2.88235283
619.09631348	2.88235283
619.10058594	2.88235283
619.10058594	2.88235283
619.10455322	2.88235283
619.10870361	2.88235283
619.11279297	2.88235283
619.11279297	2.88235283
619.11676025	2.88235283
619.12091064	2.88235283
619.12506104	2.88235283
619.12506104	2.88235283
619.12908936	2.88235283
619.13323975	2.88235283
619.13732910	2.88235283
619.14141846	2.88235283
619.14550781	2.88235283
619.14550781	2.88235283
619.14959717	2.88235283
619.15362549	2.88235283
619.15777588	2.88235283
619.15777588	2.88235283
619.16192627	2.88235283
619.16607666	2.88235283
619.17022705	2.88235283
619.17022705	2.88235283
619.17419434	2.88235283
619.17828369	2.88235283
619.17828369	2.88235283
619.18237305	2.88235283
619.18652344	2.88235283
619.19049072	2.88235283
619.19049072	2.88235283
619.19458008	2.88235283
619.19879150	2.88235283
619.20288086	2.88235283
619.20288086	2.88235283
619.20690918	2.88235283
619.21099854	2.88235283
619.21514893	2.88235283
619.21514893	2.88235283
619.21929932	2.88235283
619.22338867	2.88235283
619.22338867	2.88235283
619.22747803	2.88235283
619.23156738	2.88235283
619.23571777	2.88235283
619.23571777	2.88235283
619.23974609	2.88235283
619.24383545	2.88235283
619.24798584	2.88235283
619.24798584	2.88235283
619.25207520	2.88235283
619.25616455	2.88235283
619.26025391	2.88235283
619.26025391	2.88235283
619.26434326	2.88235283
619.26837158	2.88235283
619.26837158	2.86274505
619.27252197	2.86274505
619.27661133	2.88235283
619.28070068	2.88235283
619.28070068	2.88235283
619.28485107	2.86274505
619.28900146	2.88235283
619.29309082	2.94117641
619.29309082	2.84313726
619.29705811	2.86274505
619.30120850	2.84313726
619.30529785	2.86274505
619.30529785	2.88235283
619.30938721	2.88235283
619.31359863	2.86274505
619.31359863	3.01960778
619.31756592	3.13725495
619.32165527	2.88235283
619.32580566	2.86274505
619.32580566	2.84313726
619.32989502	2.84313726
619.33392334	2.86274505
619.33807373	3.00000000
619.33807373	2.96078420
619.34216309	2.86274505
619.34625244	2.84313726
619.35028076	2.84313726
619.35028076	2.90196085
619.35455322	2.84313726
619.35852051	2.86274505
619.35852051	3.19607854
619.36267090	3.33333325
619.36657715	3.27450991
619.37084961	3.01960778
619.37084961	3.19607854
619.37493896	4.25490189
619.37902832	4.29411745
619.38317871	4.27450991
619.38317871	4.25490189
619.38720703	4.25490189
619.39129639	4.29411745
619.39538574	4.29411745
619.39953613	4.29411745
619.40380859	4.29411745
619.40380859	4.27450991
619.40765381	4.27450991
619.41180420	4.27450991
619.41589355	4.29411745
619.41589355	4.31372547
619.41986084	4.31372547
619.42401123	4.29411745
619.42810059	4.29411745
619.42810059	4.29411745
619.43231201	4.31372547
619.43640137	4.31372547
619.44049072	4.29411745
619.44451904	4.29411745
619.44873047	4.29411745
619.44873047	4.31372547
619.45275879	4.29411745
619.45678711	4.29411745
619.46093750	4.29411745
619.46093750	4.27450991
619.46496582	4.27450991
619.46911621	4.31372547
619.47326660	4.31372547
619.47326660	4.29411745
619.47723389	4.27450991
619.48150635	4.25490189
619.48547363	4.31372547
619.48962402	4.29411745
619.49377441	4.31372547
619.49377441	4.31372547
619.49774170	4.31372547
619.50189209	4.29411745
619.50604248	4.31372547
619.50604248	4.29411745
619.51000977	4.29411745
619.51409912	4.31372547
619.51831055	4.31372547
619.51831055	4.31372547
619.52233887	4.31372547
619.52648926	4.31372547
619.53051758	4.33333349
619.53460693	4.31372547
619.53875732	4.33333349
619.53875732	4.31372547
619.54290771	4.29411745
619.54687500	4.29411745
619.55102539	4.29411745
619.55102539	4.29411745
619.55517578	4.29411745
619.55932617	4.29411745
619.56341553	4.31372547
619.56341553	4.29411745
619.56750488	4.29411745
619.57153320	4.31372547
619.57568359	4.31372547
619.57971191	4.31372547
619.58386230	4.29411745
619.58386230	4.27450991
619.58789063	4.27450991
619.59197998	4.29411745
619.59613037	4.31372547
619.59613037	4.31372547
619.60015869	4.29411745
619.60424805	4.29411745
619.60852051	4.29411745
619.60852051	4.29411745
619.61254883	4.31372547
619.61669922	4.31372547
619.62072754	4.31372547
619.62481689	4.27450991
619.62890625	4.29411745
619.62890625	4.31372547
619.63305664	4.33333349
619.63708496	4.33333349
619.64105225	4.31372547
619.64105225	4.31372547
619.64526367	4.29411745
619.64935303	4.29411745
619.65350342	4.31372547
619.65350342	4.31372547
619.65753174	4.35294104
619.66168213	4.31372547
619.66577148	4.27450991
619.66986084	4.29411745
619.67407227	4.31372547
619.67407227	4.31372547
619.67803955	4.31372547
619.68218994	4.29411745
619.68627930	4.29411745
619.68627930	4.31372547
619.69024658	4.31372547
619.69451904	4.33333349
619.69860840	4.33333349
619.69860840	4.31372547
619.70263672	4.31372547
619.70678711	4.31372547
619.70678711	4.29411745
619.71075439	4.31372547
619.71490479	4.31372547
619.71905518	4.31372547
619.71905518	4.31372547
619.72326660	4.29411745
619.72717285	4.31372547
619.73132324	4.31372547
619.73132324	4.31372547
619.73541260	4.31372547
619.73956299	4.31372547
619.74371338	4.27450991
619.74371338	4.27450991
619.74768066	4.31372547
619.75177002	4.33333349
619.75177002	4.31372547
619.75592041	4.31372547
619.76007080	4.31372547
619.76409912	4.27450991
619.76409912	4.27450991
619.76812744	4.31372547
619.77233887	4.31372547
619.77636719	4.31372547
619.77636719	4.29411745
619.78051758	4.29411745
619.78448486	4.31372547
619.78863525	4.31372547
619.78863525	4.29411745
619.79278564	4.29411745
619.79693604	4.31372547
619.79693604	4.31372547
619.80096436	4.31372547
619.80505371	4.31372547
619.80920410	4.31372547
619.80920410	4.33333349
619.81329346	4.31372547
619.81726074	4.33333349
619.82147217	4.33333349
619.82147217	4.31372547
619.82543945	4.35294104
619.82958984	4.35294104
619.83380127	4.35294104
619.83380127	4.31372547
619.83776855	4.37254906
619.84185791	4.39215708
619.84185791	4.35294104
619.84600830	4.37254906
619.85015869	4.37254906
619.85424805	4.37254906
619.85424805	4.37254906
619.85827637	4.37254906
619.86248779	4.39215708
619.86651611	4.39215708
619.86651611	4.37254906
619.87060547	4.39215708
619.87469482	4.39215708
619.87878418	4.41176462
619.88287354	4.39215708
619.88696289	4.37254906
619.88696289	4.37254906
619.89099121	4.37254906
619.89514160	4.39215708
619.89929199	4.39215708
619.89929199	4.39215708
619.90338135	4.37254906
619.90753174	4.35294104
619.91149902	4.39215708
619.91149902	4.41176462
619.91564941	4.41176462
619.91973877	4.41176462
619.92388916	4.37254906
619.92791748	4.37254906
619.93194580	4.39215708
619.93194580	4.37254906
619.93609619	4.31372547
619.94024658	4.25490189
619.94439697	4.15686274
619.94439697	2.90196085
619.94854736	2.90196085
619.95251465	2.92156863
619.95666504	2.92156863
619.95666504	2.92156863
619.96075439	2.92156863
619.96472168	2.92156863
619.96887207	2.92156863
619.97308350	2.92156863
619.97723389	2.92156863
619.97723389	2.92156863
619.98120117	2.92156863
619.98535156	2.92156863
619.98956299	2.92156863
619.98956299	2.92156863
619.99359131	2.92156863
619.99768066	2.92156863
620.00164795	2.92156863
620.00164795	2.92156863
620.00567627	2.92156863
620.00994873	2.92156863
620.01403809	2.92156863
620.01800537	2.92156863
620.02215576	2.92156863
620.02215576	2.92156863
620.02630615	2.92156863
620.03033447	2.92156863
620.03454590	2.92156863
620.03454590	2.92156863
620.03851318	2.92156863
620.04254150	2.92156863
620.04675293	2.92156863
620.04675293	2.92156863
620.05072021	2.92156863
620.05487061	2.92156863
620.05889893	2.92156863
620.06311035	2.92156863
620.06726074	2.92156863
620.06726074	2.92156863
620.07128906	2.92156863
620.07550049	2.92156863
620.07952881	2.92156863
620.07952881	2.92156863
620.08367920	2.92156863
620.08764648	2.92156863
620.09173584	2.92156863
620.09173584	2.92156863
620.09588623	2.92156863
620.10003662	2.92156863
620.10418701	2.92156863
620.10815430	2.92156863
620.11242676	2.92156863
620.11242676	2.92156863
620.11639404	2.92156863
620.12066650	2.92156863
620.12463379	2.92156863
620.12463379	2.92156863
620.12866211	2.92156863
620.13281250	2.92156863
620.13702393	2.92156863
620.13702393	2.92156863
620.14093018	2.92156863
620.14501953	2.92156863
620.14501953	2.92156863
620.14923096	2.92156863
620.15325928	2.92156863
620.15740967	2.92156863
620.15740967	2.92156863
620.16149902	2.90196085
620.16552734	2.90196085
620.16961670	2.92156863
620.16961670	2.90196085
620.17388916	2.90196085
620.17773438	2.90196085
620.18182373	2.90196085
620.18182373	2.90196085
620.18603516	2.92156863
620.19006348	2.90196085
620.19006348	2.90196085
620.19409180	2.90196085
620.19824219	2.90196085
620.20257568	2.90196085
620.20257568	2.92156863
620.20654297	2.92156863
620.21063232	2.90196085
620.21466064	2.90196085
620.21466064	2.90196085
620.21875000	2.90196085
620.22290039	2.90196085
620.22705078	2.88235283
620.22705078	3.92156863
620.23095703	4.37254906
620.23510742	4.41176462
620.23510742	4.41176462
620.23919678	4.41176462
620.24340820	4.41176462
620.24743652	4.41176462
620.24743652	4.43137264
620.25152588	4.45098019
620.25567627	4.45098019
620.25976563	4.45098019
620.25976563	4.43137264
620.26391602	4.43137264
620.26788330	4.45098019
620.27197266	4.45098019
620.27197266	4.45098019
620.27612305	4.45098019
620.28027344	4.45098019
620.28027344	4.45098019
620.28442383	4.45098019
620.28851318	4.45098019
620.29248047	4.45098019
620.29248047	4.45098019
620.29663086	4.45098019
620.30078125	4.45098019
620.30493164	4.45098019
620.30493164	4.45098019
620.30895996	4.45098019
620.31298828	4.45098019
620.31719971	4.45098019
620.31719971	4.45098019
620.32116699	4.41176462
620.32531738	4.39215708
620.32531738	4.37254906
620.32940674	4.37254906
620.33349609	4.37254906
620.33764648	4.35294104
620.33764648	4.31372547
620.34161377	4.27450991
620.34576416	4.21568632
620.34985352	4.13725471
620.34985352	4.13725471
620.35400391	4.21568632
620.35803223	4.21568632
620.36218262	3.43137264
620.36633301	2.90196085
620.37048340	2.90196085
620.37048340	2.88235283
620.37451172	2.88235283
620.37847900	2.88235283
620.38269043	2.88235283
620.38269043	2.88235283
620.38677979	2.90196085
620.39080811	2.86274505
620.39501953	2.88235283
620.39501953	2.98039222
620.39898682	3.23529410
620.40313721	3.25490189
620.40728760	2.88235283
620.41125488	3.23529410
620.41552734	4.29411745
620.41552734	4.33333349
620.41949463	4.37254906
620.42370605	4.37254906
620.42779541	4.39215708
620.42779541	4.41176462
620.43176270	4.43137264
620.43591309	4.43137264
620.44000244	4.43137264
620.44000244	4.43137264
620.44415283	4.45098019
620.44812012	4.45098019
620.45220947	4.45098019
620.45635986	4.45098019
620.46051025	4.45098019
620.46051025	4.45098019
620.46466064	4.45098019
620.46862793	4.45098019
620.47277832	4.45098019
620.47277832	4.45098019
620.47686768	4.45098019
620.48101807	4.45098019
620.48498535	4.45098019
620.48498535	4.45098019
620.48919678	4.47058821
620.49328613	4.47058821
620.49737549	4.47058821
620.50152588	4.47058821
620.50555420	4.47058821
620.50555420	4.47058821
620.50964355	4.47058821
620.51367188	4.47058821
620.51788330	4.47058821
620.51788330	4.47058821
620.52185059	4.47058821
620.52600098	4.45098019
620.53015137	4.45098019
620.53015137	4.45098019
620.53424072	4.45098019
620.53826904	4.45098019
620.54254150	4.45098019
620.54656982	4.45098019
620.55059814	4.45098019
620.55059814	4.45098019
620.55462646	4.43137264
620.55871582	4.43137264
620.56292725	4.43137264
620.56292725	4.41176462
620.56701660	4.41176462
620.57110596	4.41176462
620.57513428	4.39215708
620.57513428	4.41176462
620.57928467	4.41176462
620.58337402	4.41176462
620.58752441	4.39215708
620.59149170	4.41176462
620.59564209	4.39215708
620.59564209	4.39215708
620.59979248	4.41176462
620.60388184	4.41176462
620.60803223	4.39215708
620.60803223	4.39215708
620.61206055	4.41176462
620.61614990	4.39215708
620.62023926	4.41176462
620.62023926	4.41176462
620.62438965	4.43137264
620.62854004	4.43137264
620.63244629	4.41176462
620.63665771	4.41176462
620.64074707	4.41176462
620.64074707	4.41176462
620.64483643	4.41176462
620.64886475	4.41176462
620.65295410	4.41176462
620.65295410	4.41176462
620.65716553	4.41176462
620.66125488	4.41176462
620.66528320	4.41176462
620.66528320	4.41176462
620.66955566	4.41176462
620.67358398	4.43137264
620.67358398	4.43137264
620.67767334	4.43137264
620.68164063	4.41176462
620.68579102	4.41176462
620.68579102	4.41176462
620.68988037	4.41176462
620.69390869	4.41176462
620.69812012	4.41176462
620.69812012	4.41176462
620.70214844	4.41176462
620.70629883	4.41176462
620.71038818	4.43137264
620.71038818	4.43137264
620.71453857	4.43137264
620.71862793	4.43137264
620.71862793	4.41176462
620.72265625	4.43137264
620.72674561	4.43137264
620.73089600	4.43137264
620.73089600	4.41176462
620.73492432	4.43137264
620.73907471	4.43137264
620.74316406	4.43137264
620.74316406	4.43137264
620.74725342	4.43137264
620.75134277	4.43137264
620.75549316	4.43137264
620.75549316	4.43137264
620.75946045	4.43137264
620.76361084	4.43137264
620.76361084	4.43137264
620.76776123	4.43137264
620.77178955	4.43137264
620.77587891	4.41176462
620.77587891	4.43137264
620.77996826	4.43137264
620.78411865	4.43137264
620.78826904	4.43137264
620.78826904	4.43137264
620.79223633	4.43137264
620.79632568	4.43137264
620.80047607	4.41176462
620.80047607	4.41176462
620.80462646	4.43137264
620.80871582	4.43137264
620.80871582	4.43137264
620.81268311	4.41176462
620.81689453	4.43137264
620.82098389	4.41176462
620.82098389	4.41176462
620.82501221	4.43137264
620.82910156	4.41176462
620.83325195	4.41176462
620.83325195	4.41176462
620.83734131	4.41176462
620.84149170	4.43137264
620.84552002	4.41176462
620.84960938	4.41176462
620.85369873	4.41176462
620.85369873	4.41176462
620.85784912	4.41176462
620.86181641	4.41176462
620.86596680	4.41176462
620.86596680	4.39215708
620.87011719	4.39215708
620.87426758	4.39215708
620.87835693	4.39215708
620.87835693	4.39215708
620.88250732	4.39215708
620.88647461	4.41176462
620.89062500	4.41176462
620.89477539	4.41176462
620.89886475	4.41176462
620.89886475	4.41176462
620.90283203	4.41176462
620.90704346	4.41176462
620.91119385	4.41176462
620.91119385	4.41176462
620.91516113	4.41176462
620.91931152	4.41176462
620.92352295	4.41176462
620.92352295	4.41176462
620.92755127	4.41176462
620.93164063	4.41176462
620.93560791	4.39215708
620.93981934	4.39215708
620.94390869	4.39215708
620.94390869	4.39215708
620.94799805	4.39215708
620.95202637	4.39215708
620.95617676	4.39215708
620.95617676	4.39215708
620.96032715	4.39215708
620.96441650	4.39215708
620.96856689	4.39215708
620.96856689	4.39215708
620.97259521	4.39215708
620.97668457	4.39215708
620.98077393	4.39215708
620.98492432	4.39215708
620.98913574	4.39215708
620.98913574	4.39215708
620.99304199	4.39215708
620.99713135	4.39215708
621.00128174	4.39215708
621.00128174	4.39215708
621.00531006	4.39215708
621.00952148	4.39215708
621.01348877	4.39215708
621.01348877	4.39215708
621.01763916	4.39215708
621.02178955	4.39215708
621.02575684	4.39215708
621.02990723	4.39215708
621.03399658	4.39215708
621.03399658	4.39215708
621.03814697	4.39215708
621.04217529	4.39215708
621.04620361	4.37254906
621.04620361	4.39215708
621.05041504	4.37254906
621.05450439	4.37254906
621.05865479	4.37254906
621.05865479	4.37254906
621.06268311	4.35294104
621.06683350	4.35294104
621.07092285	4.33333349
621.07501221	4.35294104
621.07916260	4.37254906
621.07916260	4.37254906
621.08319092	4.37254906
621.08728027	4.35294104
621.09149170	4.35294104
621.09149170	4.35294104
621.09552002	4.35294104
621.09954834	4.37254906
621.10369873	4.35294104
621.10369873	4.33333349
621.10778809	4.31372547
621.11187744	4.37254906
621.11187744	4.37254906
621.11590576	4.37254906
621.11999512	4.35294104
621.12414551	4.35294104
621.12414551	4.37254906
621.12829590	4.37254906
621.13232422	4.37254906
621.13647461	4.35294104
621.13647461	4.33333349
621.14050293	4.37254906
621.14465332	4.37254906
621.14880371	4.37254906
621.14880371	4.35294104
621.15277100	4.35294104
621.15704346	4.35294104
621.15704346	4.35294104
621.16107178	4.37254906
621.16516113	4.35294104
621.16918945	4.35294104
621.16918945	4.35294104
621.17333984	4.37254906
621.17742920	4.37254906
621.18151855	4.37254906
621.18151855	4.37254906
621.18548584	4.37254906
621.18963623	4.37254906
621.19378662	4.37254906
621.19378662	4.35294104
621.19787598	4.35294104
621.20196533	4.35294104
621.20196533	4.33333349
621.20599365	4.29411745
621.21014404	4.37254906
621.21423340	4.37254906
621.21423340	4.37254906
621.21838379	4.37254906
621.22253418	4.37254906
621.22650146	4.35294104
621.22650146	4.35294104
621.23071289	4.37254906
621.23486328	4.37254906
621.23895264	4.37254906
621.23895264	4.37254906
621.24285889	4.33333349
621.24700928	4.31372547
621.24700928	4.29411745
621.25115967	4.23529434
621.25531006	4.27450991
621.25933838	4.25490189
621.25933838	4.23529434
621.26348877	4.21568632
621.26751709	4.01960802
621.27166748	2.90196085
621.27166748	2.92156863
621.27563477	2.90196085
621.27972412	2.90196085
621.28387451	2.90196085
621.28387451	2.90196085
621.28796387	2.92156863
621.29211426	2.92156863
621.29211426	2.90196085
621.29614258	2.90196085
621.30029297	2.90196085
621.30438232	2.90196085
621.30438232	2.92156863
621.30847168	2.92156863
621.31250000	2.92156863
621.31665039	2.92156863
621.31665039	2.92156863
621.32073975	2.92156863
621.32489014	2.90196085
621.32897949	2.90196085
621.33300781	2.92156863
621.33715820	2.92156863
621.33715820	2.92156863
621.34124756	2.92156863
621.34539795	2.92156863
621.34954834	2.92156863
621.34954834	2.92156863
621.35345459	2.92156863
621.35766602	2.92156863
621.36181641	2.92156863
621.36181641	2.92156863
621.36578369	2.92156863
621.36987305	2.92156863
621.37402344	2.90196085
621.37817383	2.92156863
621.38220215	2.92156863
621.38220215	2.92156863
621.38623047	2.92156863
621.39038086	2.92156863
621.39453125	2.92156863
621.39453125	2.92156863
621.39862061	2.92156863
621.40258789	2.92156863
621.40673828	2.90196085
621.40673828	2.92156863
621.41088867	2.92156863
621.41503906	2.92156863
621.41918945	2.92156863
621.42315674	2.90196085
621.42730713	2.92156863
621.42730713	2.90196085
621.43139648	2.92156863
621.43548584	2.90196085
621.43951416	2.90196085
621.43951416	2.90196085
621.44354248	2.92156863
621.44775391	2.90196085
621.45190430	2.92156863
621.45190430	2.92156863
621.45587158	2.90196085
621.45996094	2.90196085
621.46411133	2.90196085
621.46826172	2.90196085
621.47241211	2.90196085
621.47241211	2.90196085
621.47650146	2.90196085
621.48071289	2.90196085
621.48468018	2.90196085
621.48468018	2.90196085
621.48876953	2.90196085
621.49273682	2.90196085
621.49688721	2.90196085
621.49688721	2.90196085
621.50097656	2.90196085
621.50506592	2.90196085
621.50909424	2.90196085
621.51324463	2.88235283
621.51751709	2.90196085
621.51751709	2.90196085
621.52148438	2.90196085
621.52563477	2.90196085
621.52960205	2.90196085
621.52960205	2.88235283
621.53375244	2.90196085
621.53784180	2.90196085
621.54199219	3.07843137
621.54199219	3.05882359
621.54602051	3.31372547
621.55017090	3.15686274
621.55426025	2.92156863
621.55834961	3.37254906
621.56250000	3.49019599
621.56250000	3.45098042
621.56640625	3.62745094
621.57061768	3.27450991
621.57476807	2.90196085
621.57476807	2.88235283
621.57885742	3.05882359
621.58282471	3.17647052
621.58697510	2.90196085
621.58697510	2.88235283
621.59112549	2.86274505
621.59521484	2.94117641
621.59521484	2.92156863
621.59924316	2.88235283
621.60351563	3.05882359
621.60754395	3.78431368
621.60754395	4.23529434
621.61163330	4.23529434
621.61578369	4.25490189
621.61968994	4.27450991
621.61968994	4.25490189
621.62384033	4.25490189
621.62792969	4.25490189
621.63208008	4.27450991
621.63208008	4.27450991
621.63604736	4.27450991
621.64025879	4.27450991
621.64025879	4.27450991
621.64434814	4.27450991
621.64849854	4.29411745
621.65258789	4.29411745
621.65258789	4.27450991
621.65661621	4.29411745
621.66076660	4.29411745
621.66485596	4.29411745
621.66485596	4.33333349
621.66894531	4.35294104
621.67291260	4.35294104
621.67706299	4.35294104
621.67706299	4.37254906
621.68115234	4.39215708
621.68536377	4.39215708
621.68536377	4.41176462
621.68951416	4.41176462
621.69348145	4.41176462
621.69763184	4.43137264
621.69763184	4.43137264
621.70172119	4.43137264
621.70587158	4.43137264
621.70983887	4.45098019
621.70983887	4.45098019
621.71405029	4.45098019
621.71813965	4.45098019
621.72235107	4.45098019
621.72235107	4.45098019
621.72637939	4.45098019
621.73059082	4.45098019
621.73059082	4.45098019
621.73455811	4.45098019
621.73870850	4.47058821
621.74273682	4.45098019
621.74273682	4.45098019
621.74676514	4.45098019
621.75091553	4.47058821
621.75500488	4.47058821
621.75500488	4.47058821
621.75909424	4.47058821
621.76318359	4.47058821
621.76727295	4.47058821
621.76727295	4.45098019
621.77130127	4.45098019
621.77545166	4.45098019
621.77545166	4.45098019
621.77947998	4.45098019
621.78363037	4.45098019
621.78778076	4.45098019
621.78778076	4.45098019
621.79187012	4.45098019
621.79589844	4.45098019
621.79998779	4.45098019
621.79998779	4.45098019
621.80413818	4.45098019
621.80822754	4.45098019
621.81243896	4.45098019
621.81646729	4.45098019
621.82049561	4.43137264
621.82049561	4.43137264
621.82470703	4.43137264
621.82879639	4.43137264
621.83288574	4.43137264
621.83288574	4.43137264
621.83691406	4.43137264
621.84100342	4.43137264
621.84515381	4.43137264
621.84515381	4.43137264
621.84930420	4.43137264
621.85327148	4.43137264
621.85754395	4.43137264
621.86157227	4.43137264
621.86566162	4.43137264
621.86566162	4.43137264
621.86962891	4.43137264
621.87384033	4.43137264
621.87786865	4.43137264
621.87786865	4.43137264
621.88201904	4.41176462
621.88610840	4.41176462
621.89013672	4.41176462
621.89013672	4.41176462
621.89416504	4.41176462
621.89831543	4.41176462
621.90252686	4.41176462
621.90649414	4.41176462
621.91058350	4.41176462
621.91058350	4.41176462
621.91479492	4.41176462
621.91882324	4.41176462
621.92309570	4.41176462
621.92309570	4.41176462
621.92694092	4.41176462
621.93109131	4.41176462
621.93530273	4.41176462
621.93530273	4.41176462
621.93939209	4.41176462
621.94348145	4.41176462
621.94744873	4.41176462
621.95159912	4.41176462
621.95581055	4.41176462
621.95581055	4.41176462
621.95977783	4.41176462
621.96386719	4.41176462
621.96801758	4.39215708
621.96801758	4.39215708
621.97216797	4.39215708
621.97613525	4.39215708
621.98022461	4.39215708
621.98022461	4.39215708
621.98437500	4.39215708
621.98852539	4.39215708
621.99267578	4.39215708
621.99664307	4.39215708
622.00073242	4.39215708
622.00073242	4.39215708
622.00488281	4.39215708
622.00909424	4.39215708
622.01306152	4.39215708
622.01306152	4.39215708
622.01708984	4.39215708
622.02124023	4.39215708
622.02539063	4.39215708
622.02539063	4.39215708
622.02947998	4.39215708
622.03350830	4.39215708
622.03759766	4.39215708
622.04174805	4.39215708
622.04589844	4.39215708
622.04589844	4.39215708
622.04986572	4.39215708
622.05401611	4.39215708
622.05816650	4.39215708
622.05816650	4.39215708
622.06225586	4.39215708
622.06640625	4.39215708
622.07049561	4.39215708
622.07049561	4.39215708
622.07452393	4.39215708
622.07861328	4.37254906
622.07861328	4.39215708
622.08276367	4.39215708
622.08679199	4.39215708
622.09088135	4.37254906
622.09088135	4.37254906
622.09503174	4.39215708
622.09918213	4.37254906
622.10327148	4.37254906
622.10327148	4.39215708
622.10729980	4.37254906
622.11145020	4.37254906
622.11553955	4.37254906
622.11553955	4.37254906
622.11975098	4.37254906
622.12365723	4.37254906
622.12365723	4.37254906
622.12774658	4.37254906
622.13183594	4.37254906
622.13604736	4.37254906
622.13604736	4.37254906
622.14001465	4.37254906
622.14410400	4.37254906
622.14825439	4.37254906
622.14825439	4.37254906
622.15246582	4.37254906
622.15655518	4.37254906
622.16058350	4.37254906
622.16058350	4.37254906
622.16467285	4.37254906
622.16882324	4.37254906
622.16882324	4.37254906
622.17291260	4.37254906
622.17694092	4.37254906
622.18103027	4.37254906
622.18103027	4.37254906
622.18518066	4.37254906
622.18927002	4.37254906
622.19335938	4.37254906
622.19335938	4.37254906
622.19750977	4.37254906
622.20147705	4.37254906
622.20562744	4.37254906
622.20562744	4.37254906
622.20971680	4.37254906
622.21374512	4.37254906
622.21374512	4.37254906
622.21795654	4.37254906
622.22204590	4.37254906
622.22619629	4.37254906
622.22619629	4.37254906
622.23016357	4.37254906
622.23431396	4.37254906
622.23852539	4.37254906
622.23852539	4.37254906
622.24255371	4.37254906
622.24670410	4.37254906
622.25061035	4.37254906
622.25061035	4.37254906
622.25476074	4.37254906
622.25891113	4.37254906
622.25891113	4.37254906
622.26300049	4.37254906
622.26696777	4.37254906
622.27111816	4.37254906
622.27111816	4.37254906
622.27526855	4.37254906
622.27941895	4.37254906
622.28356934	4.37254906
622.28356934	4.37254906
622.28753662	4.37254906
622.29168701	4.37254906
622.29577637	4.37254906
622.29992676	4.37254906
622.30395508	4.37254906
622.30395508	4.37254906
622.30798340	4.37254906
622.31213379	4.37254906
622.31622314	4.37254906
622.31622314	4.35294104
622.32031250	4.37254906
622.32446289	4.37254906
622.32855225	4.37254906
622.32855225	4.37254906
622.33264160	4.35294104
622.33679199	4.35294104
622.34082031	4.35294104
622.34490967	4.35294104
622.34906006	4.35294104
622.34906006	4.35294104
622.35314941	4.35294104
622.35717773	4.33333349
622.36126709	4.35294104
622.36126709	4.35294104
622.36541748	4.35294104
622.36962891	4.35294104
622.37365723	4.35294104
622.37365723	4.35294104
622.37762451	4.35294104
622.38177490	4.35294104
622.38592529	4.35294104
622.39001465	4.35294104
622.39398193	4.35294104
622.39398193	4.35294104
622.39813232	4.35294104
622.40228271	4.35294104
622.40643311	4.35294104
622.40643311	4.35294104
622.41052246	4.35294104
622.41448975	4.35294104
622.41864014	4.35294104
622.41864014	4.33333349
622.42279053	4.35294104
622.42681885	4.35294104
622.43090820	4.35294104
622.43499756	4.35294104
622.43908691	4.35294104
622.43908691	4.35294104
622.44329834	4.35294104
622.44720459	4.35294104
622.45147705	4.35294104
622.45147705	4.35294104
622.45550537	4.35294104
622.45965576	4.33333349
622.46380615	4.35294104
622.46380615	4.35294104
622.46777344	4.35294104
622.47192383	4.35294104
622.47607422	4.35294104
622.48016357	4.35294104
622.48419189	4.35294104
622.48419189	4.35294104
622.48828125	4.35294104
622.49243164	4.35294104
622.49652100	4.35294104
622.49652100	4.35294104
622.50048828	4.35294104
622.50463867	4.35294104
622.50878906	4.35294104
622.50878906	4.35294104
622.51287842	4.35294104
622.51696777	4.35294104
622.52099609	4.35294104
622.52514648	4.35294104
622.52923584	4.35294104
622.52923584	4.33333349
622.53338623	4.35294104
622.53747559	4.35294104
622.54144287	4.35294104
622.54144287	4.35294104
622.54559326	4.35294104
622.54968262	4.35294104
622.55389404	4.35294104
622.55389404	4.35294104
622.55780029	4.35294104
622.56195068	4.35294104
622.56195068	4.35294104
622.56610107	4.35294104
622.57006836	4.35294104
622.57421875	4.35294104
622.57421875	4.35294104
622.57836914	4.33333349
622.58251953	4.35294104
622.58654785	4.35294104
622.58654785	4.35294104
622.59063721	4.35294104
622.59472656	4.35294104
622.59887695	4.35294104
622.59887695	4.35294104
622.60296631	4.35294104
622.60705566	4.35294104
622.60705566	4.35294104
622.61114502	4.35294104
622.61523438	4.35294104
622.61932373	4.35294104
622.61932373	4.35294104
622.62353516	4.35294104
622.62750244	4.35294104
622.63159180	4.35294104
622.63159180	4.35294104
622.63574219	4.35294104
622.63989258	4.35294104
622.64404297	4.35294104
622.64404297	4.35294104
622.64801025	4.35294104
622.65216064	4.35294104
622.65216064	4.33333349
622.65631104	4.35294104
622.66027832	4.35294104
622.66455078	4.35294104
622.66455078	4.35294104
622.66857910	4.35294104
622.67266846	4.35294104
622.67675781	4.35294104
622.67675781	4.35294104
622.68078613	4.35294104
622.68487549	4.35294104
622.68896484	4.35294104
622.68896484	4.35294104
622.69317627	4.35294104
622.69726563	4.35294104
622.69726563	4.35294104
622.70123291	4.35294104
622.70538330	4.35294104
622.70953369	4.35294104
622.70953369	4.35294104
622.71368408	4.35294104
622.71765137	4.35294104
622.72174072	4.35294104
622.72174072	4.35294104
622.72595215	4.35294104
622.73004150	4.35294104
622.73419189	4.35294104
622.73419189	4.35294104
622.73809814	4.35294104
622.74224854	4.35294104
622.74224854	4.35294104
622.74639893	4.35294104
622.75048828	4.35294104
622.75445557	4.35294104
622.75445557	4.35294104
622.75866699	4.35294104
622.76263428	4.35294104
622.76684570	4.35294104
622.76684570	4.35294104
622.77087402	4.35294104
622.77496338	4.35294104
622.77911377	4.35294104
622.78320313	4.35294104
622.78735352	4.35294104
622.78735352	4.35294104
622.79150391	4.35294104
622.79547119	4.35294104
622.79962158	4.35294104
622.79962158	4.35294104
622.80377197	4.35294104
622.80780029	4.35294104
622.81188965	4.33333349
622.81188965	4.33333349
622.81597900	4.35294104
622.82019043	4.35294104
622.82409668	4.35294104
622.82824707	4.35294104
622.83251953	4.35294104
622.83251953	4.35294104
622.83660889	4.35294104
622.84057617	4.35294104
622.84472656	4.35294104
622.84472656	4.35294104
622.84881592	4.35294104
622.85290527	4.35294104
622.85705566	4.35294104
622.85705566	4.35294104
622.86102295	4.35294104
622.86517334	4.35294104
622.86938477	4.35294104
622.87335205	4.35294104
622.87750244	4.37254906
622.87750244	4.37254906
622.88153076	4.37254906
622.88562012	4.37254906
622.88977051	4.35294104
622.88977051	4.35294104
622.89385986	4.37254906
622.89788818	4.35294104
622.90203857	4.37254906
622.90203857	4.37254906
622.90618896	4.35294104
622.91027832	4.35294104
622.91430664	4.35294104
622.91857910	4.35294104
622.92254639	4.35294104
622.92254639	4.35294104
622.92663574	4.35294104
622.93078613	4.35294104
622.93475342	4.35294104
622.93475342	4.35294104
622.93884277	4.35294104
622.94293213	4.35294104
622.94702148	4.35294104
622.94702148	4.35294104
622.95111084	4.35294104
622.95520020	4.35294104
622.95935059	4.35294104
622.96350098	4.35294104
622.96759033	4.35294104
622.96759033	4.35294104
622.97161865	4.35294104
622.97570801	4.35294104
622.97985840	4.35294104
622.97985840	4.35294104
622.98400879	4.35294104
622.98797607	4.35294104
622.99206543	4.35294104
622.99206543	4.35294104
622.99615479	4.35294104
623.00036621	4.35294104
623.00445557	4.35294104
623.00848389	4.35294104
623.01257324	4.35294104
623.01257324	4.35294104
623.01672363	4.35294104
623.02075195	4.35294104
623.02490234	4.35294104
623.02490234	4.35294104
623.02899170	4.35294104
623.03314209	4.35294104
623.03723145	4.35294104
623.03723145	4.35294104
623.04119873	4.35294104
623.04547119	4.35294104
623.04547119	4.35294104
623.04943848	4.35294104
623.05358887	4.35294104
623.05767822	4.35294104
623.05767822	4.35294104
623.06170654	4.35294104
623.06579590	4.35294104
623.07000732	4.35294104
623.07000732	4.35294104
623.07409668	4.35294104
623.07812500	4.35294104
623.08221436	4.35294104
623.08221436	4.35294104
623.08630371	4.35294104
623.09051514	4.35294104
623.09051514	4.35294104
623.09448242	4.35294104
623.09869385	4.35294104
623.10278320	4.35294104
623.10278320	4.35294104
623.10693359	4.35294104
623.11090088	4.35294104
623.11505127	4.35294104
623.11505127	4.35294104
623.11914063	4.35294104
623.12322998	4.35294104
623.12738037	4.35294104
623.12738037	4.35294104
623.13146973	4.35294104
623.13555908	4.35294104
623.13555908	4.35294104
623.13964844	4.35294104
623.14373779	4.35294104
623.14788818	4.35294104
623.14788818	4.35294104
623.15191650	4.35294104
623.15600586	4.35294104
623.16009521	4.35294104
623.16009521	4.35294104
623.16424561	4.35294104
623.16821289	4.35294104
623.17248535	4.35294104
623.17248535	4.35294104
623.17645264	4.35294104
623.18066406	4.35294104
623.18066406	4.35294104
623.18463135	4.35294104
623.18872070	4.35294104
623.19287109	4.35294104
623.19287109	4.35294104
623.19696045	4.35294104
623.20111084	4.35294104
623.20513916	4.35294104
623.20513916	4.35294104
623.20928955	4.35294104
623.21343994	4.35294104
623.21752930	4.35294104
623.21752930	4.35294104
623.22149658	4.35294104
623.22564697	4.35294104
623.22564697	4.35294104
623.22979736	4.35294104
623.23394775	4.35294104
623.23797607	4.35294104
623.23797607	4.35294104
623.24200439	4.35294104
623.24615479	4.35294104
623.25024414	4.35294104
623.25024414	4.35294104
623.25433350	4.35294104
623.25848389	4.35294104
623.26251221	4.35294104
623.26660156	4.35294104
623.27069092	4.35294104
623.27069092	4.35294104
623.27471924	4.35294104
623.27886963	4.35294104
623.28295898	4.35294104
623.28295898	4.35294104
623.28710938	4.35294104
623.29113770	4.35294104
623.29522705	4.35294104
623.29522705	4.35294104
623.29931641	4.35294104
623.30352783	4.35294104
623.30767822	4.35294104
623.31158447	4.35294104
623.31573486	4.35294104
623.31573486	4.35294104
623.31988525	4.35294104
623.32397461	4.35294104
623.32812500	4.35294104
623.32812500	4.35294104
623.33209229	4.35294104
623.33618164	4.35294104
623.34039307	4.35294104
623.34039307	4.35294104
623.34442139	4.35294104
623.34844971	4.35294104
623.35260010	4.35294104
623.35675049	4.35294104
623.36090088	4.35294104
623.36090088	4.35294104
623.36492920	4.35294104
623.36901855	4.35294104
623.37310791	4.35294104
623.37310791	4.35294104
623.37719727	4.35294104
623.38128662	4.33333349
623.38549805	4.33333349
623.38549805	4.33333349
623.38940430	4.33333349
623.39355469	4.33333349
623.39770508	4.33333349
623.40173340	4.33333349
623.40582275	4.33333349
623.40582275	4.33333349
623.40997314	4.33333349
623.41412354	4.33333349
623.41821289	4.33333349
623.41821289	4.33333349
623.42230225	4.33333349
623.42639160	4.33333349
623.43048096	4.33333349
623.43048096	4.33333349
623.43457031	4.33333349
623.43859863	4.33333349
623.44281006	4.33333349
623.44683838	4.33333349
623.45092773	4.33333349
623.45092773	4.33333349
623.45495605	4.33333349
623.45910645	4.33333349
623.46325684	4.27450991
623.46325684	4.29411745
623.46734619	4.29411745
623.47149658	4.29411745
623.47546387	4.27450991
623.47546387	4.27450991
623.47961426	4.23529434
623.48376465	4.21568632
623.48785400	4.17647076
623.49194336	4.05882359
623.49603271	3.23529410
623.49603271	2.90196085
623.50012207	2.90196085
623.50427246	2.90196085
623.50842285	2.90196085
623.50842285	2.90196085
623.51239014	2.90196085
623.51641846	2.90196085
623.52062988	2.90196085
623.52062988	2.90196085
623.52471924	2.90196085
623.52874756	2.92156863
623.52874756	2.92156863
623.53283691	2.92156863
623.53698730	2.92156863
623.54113770	2.92156863
623.54113770	2.92156863
623.54522705	2.92156863
623.54925537	2.90196085
623.55340576	2.90196085
623.55340576	2.92156863
623.55749512	2.92156863
623.56146240	2.92156863
623.56561279	2.92156863
623.56561279	2.92156863
623.56964111	2.92156863
623.57379150	2.92156863
623.57379150	2.90196085
623.57794189	2.92156863
623.58197021	2.92156863
623.58605957	2.92156863
623.58605957	2.92156863
623.59027100	2.92156863
623.59436035	2.92156863
623.59844971	2.90196085
623.59844971	2.92156863
623.60247803	2.92156863
623.60662842	2.92156863
623.61077881	2.92156863
623.61077881	2.92156863
623.61474609	2.92156863
623.61883545	2.90196085
623.61883545	2.90196085
623.62298584	2.92156863
623.62713623	2.90196085
623.63116455	2.92156863
623.63116455	2.92156863
623.63519287	2.92156863
623.63946533	2.92156863
623.64349365	2.92156863
623.64349365	2.90196085
623.64758301	2.90196085
623.65161133	2.90196085
623.65570068	2.90196085
623.65570068	2.90196085
623.65985107	2.92156863
623.66400146	2.90196085
623.66400146	2.90196085
623.66809082	2.90196085
623.67211914	2.92156863
623.67626953	2.92156863
623.67626953	2.90196085
623.68029785	2.90196085
623.68444824	2.92156863
623.68865967	2.90196085
623.68865967	2.90196085
623.69256592	2.90196085
623.69671631	2.90196085
623.70080566	2.90196085
623.70080566	2.90196085
623.70483398	2.92156863
623.70898438	2.90196085
623.70898438	2.90196085
623.71307373	2.90196085
623.71710205	2.90196085
623.72131348	2.90196085
623.72131348	2.90196085
623.72546387	2.90196085
623.72949219	2.90196085
623.73364258	2.90196085
623.73364258	2.90196085
623.73779297	2.90196085
623.74188232	2.90196085
623.74584961	2.90196085
623.74987793	2.90196085
623.75408936	2.90196085
623.75408936	2.90196085
623.75817871	2.90196085
623.76214600	2.90196085
623.76647949	2.90196085
623.76647949	2.90196085
623.77044678	2.86274505
623.77459717	2.86274505
623.77874756	2.90196085
623.77874756	2.88235283
623.78271484	2.90196085
623.78680420	2.90196085
623.79101563	2.90196085
623.79498291	2.90196085
623.79907227	2.92156863
623.79907227	3.00000000
623.80322266	2.96078420
623.80725098	2.90196085
623.81146240	2.88235283
623.81146240	2.86274505
623.81536865	2.88235283
623.81964111	2.86274505
623.82373047	3.00000000
623.82373047	2.98039222
623.82788086	3.09803915
623.83197021	3.72549009
623.83587646	4.23529434
623.84008789	4.21568632
623.84423828	4.23529434
623.84423828	4.21568632
623.84838867	4.23529434
623.85260010	4.25490189
623.85650635	4.25490189
623.85650635	4.23529434
623.86077881	4.21568632
623.86474609	4.21568632
623.86883545	4.21568632
623.86883545	4.23529434
623.87286377	4.25490189
623.87707520	4.25490189
623.88110352	4.25490189
623.88507080	4.23529434
623.88928223	4.23529434
623.88928223	4.25490189
623.89355469	4.27450991
623.89752197	4.25490189
623.90167236	4.23529434
623.90167236	4.21568632
623.90570068	4.23529434
623.90979004	4.23529434
623.91387939	4.27450991
623.91387939	4.25490189
623.91802979	4.19607830
623.92218018	4.23529434
623.92614746	4.29411745
623.93023682	4.27450991
623.93432617	4.25490189
623.93432617	4.25490189
623.93853760	4.29411745
623.94250488	4.29411745
623.94659424	4.29411745
623.94659424	4.27450991
623.95074463	4.29411745
623.95489502	4.29411745
623.95904541	4.27450991
623.95904541	4.27450991
623.96301270	4.27450991
623.96716309	4.25490189
623.97125244	4.31372547
623.97528076	4.31372547
623.97955322	4.29411745
623.97955322	4.29411745
623.98352051	4.27450991
623.98767090	4.31372547
623.99176025	4.29411745
623.99176025	4.27450991
623.99578857	4.29411745
623.99987793	4.29411745
624.00396729	4.29411745
624.00396729	4.29411745
624.00811768	4.31372547
624.01220703	4.31372547
624.01220703	4.33333349
624.01623535	4.35294104
624.02026367	4.33333349
624.02447510	4.33333349
624.02447510	4.31372547
624.02862549	4.31372547
624.03259277	4.33333349
624.03668213	4.31372547
624.03668213	4.31372547
624.04083252	4.33333349
624.04498291	4.31372547
624.04907227	4.29411745
624.04907227	4.33333349
624.05316162	4.37254906
624.05731201	4.37254906
624.05731201	4.37254906
624.06134033	4.37254906
624.06549072	4.39215708
624.06951904	4.41176462
624.06951904	4.41176462
624.07360840	4.41176462
624.07769775	4.41176462
624.08178711	4.41176462
624.08178711	4.43137264
624.08581543	4.43137264
624.08996582	4.43137264
624.09405518	4.43137264
624.09405518	4.43137264
624.09820557	4.45098019
624.10235596	4.45098019
624.10235596	4.45098019
624.10650635	4.45098019
624.11047363	4.45098019
624.11462402	4.45098019
624.11462402	4.45098019
624.11877441	4.45098019
624.12274170	4.45098019
624.12683105	4.45098019
624.12683105	4.45098019
624.13098145	4.45098019
624.13513184	4.45098019
624.13928223	4.45098019
624.13928223	4.45098019
624.14318848	4.45098019
624.14733887	4.45098019
624.14733887	4.43137264
624.15148926	4.43137264
624.15545654	4.43137264
624.15960693	4.43137264
624.15960693	4.43137264
624.16369629	4.43137264
624.16784668	4.43137264
624.17199707	4.43137264
624.17199707	4.43137264
624.17602539	4.43137264
624.18011475	4.43137264
624.18426514	4.43137264
624.18426514	4.43137264
624.18835449	4.43137264
624.19244385	4.43137264
624.19244385	4.43137264
624.19647217	4.43137264
624.20062256	4.41176462
624.20465088	4.41176462
624.20465088	4.41176462
624.20886230	4.41176462
624.21282959	4.41176462
624.21697998	4.41176462
624.21697998	4.41176462
624.22113037	4.41176462
624.22521973	4.41176462
624.22924805	4.41176462
624.23345947	4.41176462
624.23748779	4.41176462
624.23748779	4.41176462
624.24163818	4.41176462
624.24566650	4.41176462
624.24969482	4.41176462
624.24969482	4.41176462
624.25384521	4.41176462
624.25799561	4.41176462
624.26202393	4.41176462
624.26202393	4.41176462
624.26605225	4.39215708
624.27020264	4.39215708
624.27435303	4.39215708
624.27844238	4.39215708
624.28259277	4.39215708
624.28259277	4.39215708
624.28656006	4.39215708
624.29071045	4.39215708
624.29486084	4.39215708
624.29486084	4.39215708
624.29895020	4.39215708
624.30297852	4.39215708
624.30712891	4.39215708
624.30712891	4.39215708
624.31121826	4.39215708
624.31530762	4.39215708
624.31951904	4.39215708
624.32342529	4.39215708
624.32757568	4.39215708
624.32757568	4.39215708
624.33172607	4.39215708
624.33569336	4.39215708
624.33984375	4.39215708
624.33984375	4.39215708
624.34393311	4.39215708
624.34802246	4.39215708
624.35229492	4.39215708
624.35229492	4.39215708
624.35626221	4.39215708
624.36053467	4.39215708
624.36450195	4.35294104
624.36865234	4.37254906
624.37274170	4.35294104
624.37274170	4.33333349
624.37670898	4.35294104
624.38085938	4.31372547
624.38500977	4.29411745
624.38500977	4.33333349
624.38897705	4.31372547
624.39306641	4.29411745
624.39721680	4.29411745
624.39721680	4.27450991
624.40130615	4.25490189
624.40551758	4.29411745
624.40954590	4.27450991
624.41363525	4.27450991
624.41778564	4.27450991
624.41778564	4.27450991
624.42187500	4.27450991
624.42590332	4.23529434
624.43005371	4.25490189
624.43005371	4.21568632
624.43408203	4.23529434
624.43823242	4.23529434
624.44232178	4.21568632
624.44232178	4.15686274
624.44641113	4.21568632
624.45043945	4.23529434
624.45458984	4.23529434
624.45874023	4.21568632
624.46282959	4.19607830
624.46282959	4.15686274
624.46685791	4.09803915
624.47094727	4.19607830
624.47509766	4.17647076
624.47509766	4.17647076
624.47924805	4.17647076
624.48321533	4.11764717
624.48748779	4.11764717
624.48748779	4.15686274
624.49139404	4.19607830
624.49554443	4.13725471
624.49554443	4.09803915
624.49951172	4.19607830
624.50366211	4.05882359
624.50787354	3.17647052
624.50787354	2.90196085
624.51196289	2.90196085
624.51593018	2.88235283
624.52008057	2.90196085
624.52008057	2.88235283
624.52423096	2.90196085
624.52832031	2.90196085
624.53247070	2.90196085
624.53247070	2.90196085
624.53649902	2.90196085
624.54071045	2.90196085
624.54071045	2.90196085
624.54473877	2.90196085
624.54888916	2.88235283
624.55297852	2.88235283
624.55297852	2.90196085
624.55694580	2.88235283
624.56109619	2.90196085
624.56524658	2.90196085
624.56524658	2.90196085
624.56921387	2.88235283
624.57348633	2.88235283
624.57751465	2.90196085
624.57751465	2.90196085
624.58166504	2.90196085
624.58581543	2.90196085
624.58581543	2.90196085
624.58978271	2.90196085
624.59393311	2.88235283
624.59802246	2.90196085
624.59802246	2.90196085
624.60217285	2.90196085
624.60614014	2.90196085
624.61022949	2.90196085
624.61022949	2.90196085
624.61437988	2.90196085
624.61846924	2.90196085
624.62261963	2.90196085
624.62261963	2.90196085
624.62658691	2.90196085
624.63073730	2.90196085
624.63073730	2.90196085
624.63488770	2.90196085
624.63897705	2.90196085
624.64306641	2.90196085
624.64306641	2.90196085
624.64715576	2.90196085
624.65124512	2.90196085
624.65539551	2.90196085
624.65539551	2.90196085
624.65942383	2.90196085
624.66345215	2.90196085
624.66760254	2.90196085
624.66760254	2.90196085
624.67175293	2.90196085
624.67578125	2.90196085
624.67578125	2.90196085
624.67987061	2.90196085
624.68395996	2.90196085
624.68811035	2.90196085
624.68811035	2.90196085
624.69226074	2.90196085
624.69628906	2.90196085
624.70043945	2.90196085
624.70043945	2.90196085
624.70446777	2.90196085
624.70867920	2.90196085
624.71270752	2.90196085
624.71667480	2.90196085
624.72082520	2.90196085
624.72082520	2.90196085
624.72497559	2.90196085
624.72906494	2.90196085
624.73321533	2.90196085
624.73321533	2.90196085
624.73718262	2.90196085
624.74139404	2.90196085
624.74548340	2.90196085
624.74548340	2.90196085
624.74945068	2.90196085
624.75360107	2.90196085
624.75775146	2.90196085
624.76184082	2.88235283
624.76593018	2.90196085
624.76593018	2.90196085
624.77001953	2.88235283
624.77404785	2.90196085
624.77819824	2.88235283
624.77819824	2.90196085
624.78234863	2.88235283
624.78637695	2.90196085
624.79046631	2.90196085
624.79046631	2.88235283
624.79461670	2.90196085
624.79870605	2.90196085
624.80285645	2.88235283
624.80694580	2.90196085
624.81103516	2.88235283
624.81103516	2.88235283
624.81506348	2.86274505
624.81921387	2.88235283
624.82336426	2.90196085
624.82336426	2.90196085
624.82745361	2.90196085
624.83135986	2.86274505
624.83557129	2.90196085
624.83557129	2.86274505
624.83959961	2.88235283
624.84368896	2.92156863
624.84783936	2.86274505
624.85198975	2.92156863
624.85607910	3.11764717
624.85607910	3.37254906
624.86004639	3.21568632
624.86425781	3.21568632
624.86834717	2.98039222
624.86834717	2.88235283
624.87249756	2.88235283
624.87646484	2.88235283
624.88055420	3.27450991
624.88055420	4.17647076
624.88476563	4.25490189
624.88885498	4.25490189
624.89288330	4.27450991
624.89691162	4.27450991
624.90106201	4.21568632
624.90106201	4.23529434
624.90521240	4.25490189
624.90930176	4.25490189
624.91345215	4.27450991
624.91345215	4.27450991
624.91748047	4.27450991
624.92156982	4.27450991
624.92578125	4.25490189
624.92578125	4.27450991
624.92974854	4.27450991
624.93383789	4.25490189
624.93798828	4.27450991
624.94207764	4.27450991
624.94628906	4.27450991
624.94628906	4.27450991
624.95019531	4.27450991
624.95440674	4.29411745
624.95849609	4.27450991
624.95849609	4.27450991
624.96258545	4.27450991
624.96655273	4.27450991
624.97070313	4.27450991
624.97070313	4.27450991
624.97485352	4.29411745
624.97894287	4.29411745
624.97894287	4.29411745
624.98297119	4.25490189
624.98712158	4.27450991
624.99121094	4.27450991
624.99121094	4.27450991
624.99542236	4.27450991
624.99945068	4.27450991
625.00347900	4.27450991
625.00347900	4.27450991
625.00762939	4.27450991
625.01165771	4.27450991
625.01580811	4.27450991
625.01580811	4.27450991
625.01977539	4.27450991
625.02398682	4.25490189
625.02398682	4.25490189
625.02807617	4.27450991
625.03222656	4.29411745
625.03631592	4.27450991
625.03631592	4.25490189
625.04046631	4.25490189
625.04449463	4.27450991
625.04858398	4.27450991
625.04858398	4.27450991
625.05273438	4.29411745
625.05676270	4.27450991
625.06085205	4.27450991
625.06085205	4.25490189
625.06494141	4.25490189
625.06909180	4.27450991
625.06909180	4.29411745
625.07305908	4.29411745
625.07714844	4.27450991
625.08148193	4.27450991
625.08148193	4.27450991
625.08544922	4.27450991
625.08959961	4.29411745
625.09356689	4.29411745
625.09356689	4.29411745
625.09771729	4.29411745
625.10180664	4.27450991
625.10595703	4.27450991
625.10595703	4.25490189
625.10992432	4.27450991
625.11413574	4.27450991
625.11413574	4.27450991
625.11822510	4.25490189
625.12231445	4.25490189
625.12646484	4.27450991
625.12646484	4.27450991
625.13043213	4.27450991
625.13452148	4.27450991
625.13867188	4.25490189
625.13867188	4.23529434
625.14282227	4.23529434
625.14697266	4.21568632
625.15093994	4.27450991
625.15509033	4.27450991
625.15917969	4.27450991
625.15917969	4.27450991
625.16333008	4.27450991
625.16748047	4.25490189
625.17144775	4.23529434
625.17144775	4.25490189
625.17559814	4.25490189
625.17974854	4.25490189
625.18383789	4.27450991
625.18383789	4.27450991
625.18780518	4.27450991
625.19201660	4.29411745
625.19610596	4.27450991
625.20007324	4.27450991
625.20422363	4.27450991
625.20422363	4.29411745
625.20837402	4.29411745
625.21252441	4.29411745
625.21667480	4.29411745
625.21667480	4.29411745
625.22058105	4.29411745
625.22479248	4.29411745
625.22888184	4.27450991
625.22888184	4.27450991
625.23303223	4.29411745
625.23699951	4.29411745
625.24114990	4.25490189
625.24523926	4.27450991
625.24932861	4.29411745
625.24932861	4.29411745
625.25347900	4.29411745
625.25750732	4.29411745
625.26159668	4.29411745
625.26159668	4.29411745
625.26568604	4.27450991
625.26989746	4.29411745
625.27380371	4.31372547
625.27380371	4.31372547
625.27801514	4.31372547
625.28210449	4.31372547
625.28625488	4.31372547
625.29028320	4.31372547
625.29449463	4.31372547
625.29449463	4.31372547
625.29852295	4.29411745
625.30261230	4.31372547
625.30676270	4.31372547
625.30676270	4.31372547
625.31072998	4.31372547
625.31481934	4.33333349
625.31896973	4.31372547
625.31896973	4.31372547
625.32312012	4.31372547
625.32708740	4.29411745
625.33117676	4.33333349
625.33538818	4.31372547
625.33953857	4.31372547
625.33953857	4.33333349
625.34350586	4.31372547
625.34759521	4.31372547
625.35168457	4.31372547
625.35168457	4.33333349
625.35589600	4.31372547
625.36004639	4.31372547
625.36401367	4.31372547
625.36401367	4.31372547
625.36816406	4.31372547
625.37225342	4.31372547
625.37634277	4.31372547
625.38043213	4.31372547
625.38452148	4.31372547
625.38452148	4.29411745
625.38867188	4.31372547
625.39270020	4.31372547
625.39685059	4.31372547
625.39685059	4.31372547
625.40081787	4.31372547
625.40496826	4.31372547
625.40911865	4.29411745
625.40911865	4.29411745
625.41320801	4.31372547
625.41723633	4.33333349
625.42144775	4.31372547
625.42541504	4.31372547
625.42950439	4.29411745
625.42950439	4.31372547
625.43353271	4.31372547
625.43768311	4.31372547
625.44177246	4.31372547
625.44177246	4.31372547
625.44598389	4.31372547
625.45007324	4.31372547
625.45410156	4.31372547
625.45410156	4.31372547
625.45819092	4.31372547
625.46234131	4.29411745
625.46234131	4.27450991
625.46649170	4.31372547
625.47045898	4.31372547
625.47454834	4.31372547
625.47454834	4.31372547
625.47869873	4.29411745
625.48284912	4.29411745
625.48693848	4.31372547
625.48693848	4.31372547
625.49102783	4.31372547
625.49505615	4.31372547
625.49920654	4.31372547
625.49920654	4.31372547
625.50341797	4.29411745
625.50744629	4.31372547
625.50744629	4.31372547
625.51147461	4.31372547
625.51556396	4.31372547
625.51983643	4.31372547
625.51983643	4.31372547
625.52374268	4.29411745
625.52783203	4.27450991
625.53192139	4.27450991
625.53192139	4.29411745
625.53601074	4.31372547
625.54022217	4.31372547
625.54431152	4.31372547
625.54431152	4.31372547
625.54846191	4.31372547
625.55261230	4.31372547
625.55261230	4.31372547
625.55664063	4.29411745
625.56060791	4.31372547
625.56469727	4.31372547
625.56469727	4.29411745
625.56878662	4.31372547
625.57299805	4.31372547
625.57708740	4.29411745
625.57708740	4.31372547
625.58099365	4.31372547
625.58520508	4.31372547
625.58935547	4.31372547
625.58935547	4.31372547
625.59344482	4.31372547
625.59741211	4.31372547
625.59741211	4.31372547
625.60156250	4.31372547
625.60571289	4.29411745
625.60986328	4.29411745
625.60986328	4.31372547
625.61389160	4.33333349
625.61798096	4.31372547
625.62213135	4.31372547
625.62213135	4.31372547
625.62622070	4.31372547
625.63031006	4.31372547
625.63452148	4.31372547
625.63848877	4.31372547
625.64251709	4.31372547
625.64251709	4.31372547
625.64666748	4.29411745
625.65069580	4.29411745
625.65484619	4.31372547
625.65484619	4.31372547
625.65887451	4.27450991
625.66308594	4.29411745
625.66717529	4.29411745
625.66717529	4.31372547
625.67120361	4.31372547
625.67553711	4.31372547
625.67944336	4.31372547
625.68359375	4.31372547
625.68774414	4.31372547
625.68774414	4.31372547
625.69171143	4.29411745
625.69580078	4.31372547
625.69989014	4.27450991
625.69989014	4.31372547
625.70397949	4.31372547
625.70806885	4.31372547
625.71221924	4.31372547
625.71221924	4.29411745
625.71630859	4.29411745
625.72045898	4.31372547
625.72442627	4.29411745
625.72857666	4.31372547
625.73272705	4.27450991
625.73272705	4.29411745
625.73687744	4.31372547
625.74084473	4.31372547
625.74493408	4.29411745
625.74493408	4.31372547
625.74908447	4.31372547
625.75323486	4.31372547
625.75738525	4.31372547
625.75738525	4.31372547
625.76147461	4.29411745
625.76544189	4.29411745
625.76953125	4.29411745
625.77374268	4.33333349
625.77783203	4.31372547
625.77783203	4.23529434
625.78179932	4.25490189
625.78588867	4.25490189
625.79010010	4.27450991
625.79010010	4.35294104
625.79406738	4.33333349
625.79827881	4.29411745
625.80249023	4.31372547
625.80249023	4.29411745
625.80651855	4.27450991
625.81060791	4.29411745
625.81457520	4.31372547
625.81872559	4.31372547
625.82275391	4.29411745
625.82275391	4.27450991
625.82690430	4.29411745
625.83093262	4.29411745
625.83502197	4.29411745
625.83502197	4.27450991
625.83923340	4.29411745
625.84332275	4.31372547
625.84747314	4.27450991
625.84747314	4.27450991
625.85144043	4.29411745
625.85559082	4.29411745
625.85968018	4.29411745
625.86389160	4.25490189
625.86785889	4.29411745
625.86785889	4.29411745
625.87200928	4.29411745
625.87609863	4.29411745
625.88018799	4.29411745
625.88018799	4.29411745
625.88427734	4.27450991
625.88848877	4.27450991
625.89245605	4.27450991
625.89245605	4.27450991
625.89654541	4.29411745
625.90081787	4.27450991
625.90472412	4.27450991
625.90887451	4.25490189
625.91302490	4.27450991
625.91302490	4.27450991
625.91711426	4.27450991
625.92108154	4.27450991
625.92523193	4.27450991
625.92523193	4.27450991
625.92932129	4.25490189
625.93347168	4.27450991
625.93756104	4.29411745
625.93756104	4.31372547
625.94158936	4.29411745
625.94573975	4.27450991
625.94573975	4.27450991
625.94982910	4.29411745
625.95397949	4.29411745
625.95794678	4.31372547
625.95794678	4.29411745
625.96209717	4.31372547
625.96624756	4.29411745
625.97039795	4.29411745
625.97039795	4.31372547
625.97448730	4.31372547
625.97851563	4.31372547
625.98266602	4.31372547
625.98266602	4.31372547
625.98675537	4.31372547
625.99090576	4.31372547
625.99090576	4.31372547
625.99481201	4.31372547
625.99896240	4.29411745
626.00305176	4.29411745
626.00305176	4.31372547
626.00726318	4.31372547
626.01116943	4.33333349
626.01544189	4.33333349
626.01544189	4.33333349
626.01947021	4.31372547
626.02362061	4.31372547
626.02777100	4.31372547
626.02777100	4.31372547
626.03173828	4.31372547
626.03594971	4.31372547
626.03594971	4.29411745
626.04003906	4.31372547
626.04412842	4.31372547
626.04809570	4.31372547
626.04809570	4.31372547
626.05224609	4.33333349
626.05639648	4.33333349
626.06042480	4.33333349
626.06042480	4.31372547
626.06445313	4.31372547
626.06860352	4.31372547
626.07275391	4.33333349
626.07275391	4.31372547
626.07684326	4.33333349
626.08099365	4.31372547
626.08099365	4.31372547
626.08496094	4.31372547
626.08917236	4.31372547
626.09326172	4.31372547
626.09326172	4.31372547
626.09741211	4.31372547
626.10150146	4.31372547
626.10552979	4.31372547
626.10552979	4.31372547
626.10961914	4.29411745
626.11370850	4.31372547
626.11785889	4.31372547
626.12182617	4.31372547
626.12591553	4.29411745
626.12591553	4.29411745
626.13006592	4.31372547
626.13421631	4.31372547
626.13824463	4.31372547
626.13824463	4.31372547
626.14245605	4.31372547
626.14648438	4.29411745
626.15063477	4.31372547
626.15063477	4.31372547
626.15460205	4.31372547
626.15869141	4.31372547
626.16284180	4.31372547
626.16699219	4.29411745
626.17108154	4.31372547
626.17108154	4.31372547
626.17510986	4.31372547
626.17913818	4.31372547
626.18328857	4.31372547
626.18328857	4.33333349
626.18743896	4.33333349
626.19140625	4.33333349
626.19555664	4.33333349
626.19555664	4.33333349
626.19970703	4.31372547
626.20385742	4.31372547
626.20794678	4.31372547
626.21191406	4.31372547
626.21606445	4.33333349
626.21606445	4.33333349
626.22015381	4.31372547
626.22436523	4.31372547
626.22845459	4.33333349
626.22845459	4.33333349
626.23242188	4.33333349
626.23663330	4.33333349
626.24060059	4.33333349
626.24060059	4.35294104
626.24468994	4.33333349
626.24877930	4.33333349
626.25299072	4.37254906
626.25701904	4.35294104
626.26116943	4.35294104
626.26116943	4.35294104
626.26519775	4.33333349
626.26940918	4.33333349
626.27349854	4.33333349
626.27349854	4.33333349
626.27758789	4.33333349
626.28155518	4.33333349
626.28570557	4.31372547
626.28570557	4.31372547
626.28979492	4.31372547
626.29388428	4.33333349
626.29791260	4.35294104
626.30200195	4.35294104
626.30615234	4.33333349
626.30615234	4.33333349
626.31024170	4.33333349
626.31445313	4.33333349
626.31842041	4.33333349
626.31842041	4.33333349
626.32257080	4.33333349
626.32672119	4.33333349
626.33081055	4.33333349
626.33081055	4.31372547
626.33483887	4.35294104
626.33892822	4.33333349
626.34307861	4.31372547
626.34722900	4.35294104
626.35131836	4.33333349
626.35131836	4.33333349
626.35546875	4.31372547
626.35949707	4.31372547
626.36358643	4.31372547
626.36358643	4.31372547
626.36773682	4.33333349
626.37170410	4.31372547
626.37579346	4.29411745
626.37579346	4.31372547
626.38000488	4.31372547
626.38409424	4.31372547
626.38806152	4.31372547
626.39215088	4.33333349
626.39642334	4.31372547
626.39642334	4.31372547
626.40045166	4.29411745
626.40454102	4.29411745
626.40856934	4.31372547
626.40856934	4.31372547
626.41271973	4.33333349
626.41680908	4.33333349
626.42089844	4.31372547
626.42089844	4.31372547
626.42498779	4.29411745
626.42913818	4.33333349
626.42913818	4.35294104
626.43322754	4.35294104
626.43731689	4.33333349
626.44146729	4.33333349
626.44146729	4.29411745
626.44543457	4.31372547
626.44958496	4.37254906
626.45367432	4.33333349
626.45367432	4.33333349
626.45776367	4.37254906
626.46179199	4.37254906
626.46594238	4.37254906
626.46594238	4.35294104
626.47003174	4.33333349
626.47418213	4.35294104
626.47418213	4.35294104
626.47814941	4.35294104
626.48242188	4.35294104
626.48651123	4.37254906
626.48651123	4.37254906
626.49060059	4.35294104
626.49468994	4.35294104
626.49865723	4.33333349
626.49865723	4.33333349
626.50280762	4.33333349
626.50701904	4.37254906
626.51098633	4.33333349
626.51098633	4.33333349
626.51501465	4.35294104
626.51910400	4.35294104
626.51910400	4.35294104
626.52331543	4.35294104
626.52746582	4.35294104
626.53149414	4.35294104
626.53149414	4.33333349
626.53552246	4.29411745
626.53967285	4.35294104
626.54382324	4.35294104
626.54382324	4.37254906
626.54797363	4.35294104
626.55200195	4.33333349
626.55615234	4.35294104
626.55615234	4.37254906
626.56018066	4.37254906
626.56433105	4.29411745
626.56433105	4.31372547
626.56848145	4.37254906
626.57250977	4.39215708
626.57659912	4.37254906
626.57659912	4.37254906
626.58068848	4.35294104
626.58471680	4.37254906
626.58886719	4.37254906
626.58886719	4.35294104
626.59301758	4.35294104
626.59710693	4.37254906
626.60125732	4.35294104
626.60522461	4.37254906
626.60949707	4.37254906
626.60949707	4.35294104
626.61346436	4.35294104
626.61761475	4.37254906
626.62170410	4.37254906
626.62170410	4.35294104
626.62567139	4.37254906
626.62988281	4.33333349
626.63385010	4.33333349
626.63385010	4.37254906
626.63806152	4.39215708
626.64202881	4.37254906
626.64617920	4.33333349
626.65032959	4.33333349
626.65441895	4.35294104
626.65441895	4.35294104
626.65844727	4.35294104
626.66259766	4.33333349
626.66668701	4.35294104
626.66668701	4.35294104
626.67083740	4.35294104
626.67498779	4.35294104
626.67901611	4.35294104
626.67901611	4.37254906
626.68304443	4.33333349
626.68719482	4.29411745
626.69128418	4.33333349
626.69537354	4.35294104
626.69940186	4.31372547
626.69940186	4.29411745
626.70349121	4.33333349
626.70770264	4.35294104
626.71179199	4.33333349
626.71179199	4.33333349
626.71575928	4.31372547
626.71990967	4.33333349
626.72406006	4.29411745
626.72406006	4.31372547
626.72821045	4.31372547
626.73217773	4.29411745
626.73638916	4.31372547
626.74035645	4.29411745
626.74450684	4.29411745
626.74450684	4.33333349
626.74847412	4.31372547
626.75262451	4.31372547
626.75677490	4.29411745
626.75677490	4.31372547
626.76092529	4.29411745
626.76495361	4.31372547
626.76910400	4.33333349
626.76910400	4.29411745
626.77319336	4.27450991
626.77734375	4.29411745
626.78143311	4.35294104
626.78540039	4.33333349
626.78955078	4.31372547
626.78955078	4.33333349
626.79364014	4.33333349
626.79785156	4.31372547
626.80194092	4.31372547
626.80194092	4.33333349
626.80596924	4.29411745
626.81005859	4.27450991
626.81420898	4.33333349
626.81420898	4.31372547
626.81835938	4.29411745
626.82244873	4.29411745
626.82641602	4.29411745
626.83056641	4.29411745
626.83471680	4.29411745
626.83471680	4.29411745
626.83880615	4.27450991
626.84283447	4.25490189
626.84698486	4.25490189
626.84698486	4.25490189
626.85113525	4.29411745
626.85522461	4.27450991
626.85925293	4.29411745
626.85925293	4.25490189
626.86334229	4.27450991
626.86749268	4.27450991
626.87158203	4.27450991
626.87554932	4.29411745
626.87976074	4.29411745
626.87976074	4.27450991
626.88378906	4.23529434
626.88787842	4.27450991
626.89202881	4.29411745
626.89202881	4.29411745
626.89605713	4.27450991
626.90020752	4.29411745
626.90429688	4.27450991
626.90429688	4.27450991
626.90844727	4.29411745
626.91241455	4.27450991
626.91241455	4.27450991
626.91656494	4.29411745
626.92071533	4.29411745
626.92486572	4.29411745
626.92486572	4.27450991
626.92883301	4.29411745
626.93292236	4.31372547
626.93707275	4.31372547
626.93707275	4.29411745
626.94122314	4.31372547
626.94537354	4.29411745
626.94934082	4.29411745
626.94934082	4.31372547
626.95343018	4.33333349
626.95758057	4.33333349
626.95758057	4.31372547
626.96166992	4.31372547
626.96569824	4.31372547
626.96978760	4.33333349
626.96978760	4.33333349
626.97393799	4.35294104
626.97808838	4.33333349
626.98223877	4.31372547
626.98223877	4.33333349
626.98620605	4.33333349
626.99035645	4.31372547
626.99444580	4.35294104
626.99444580	4.35294104
626.99859619	4.35294104
627.00256348	4.33333349
627.00256348	4.35294104
627.00671387	4.35294104
627.01074219	4.35294104
627.01489258	4.35294104
627.01489258	4.35294104
627.01892090	4.35294104
627.02313232	4.35294104
627.02716064	4.35294104
627.02716064	4.33333349
627.03131104	4.35294104
627.03546143	4.35294104
627.03942871	4.35294104
627.03942871	4.35294104
627.04357910	4.33333349
627.04772949	4.33333349
627.04772949	4.33333349
627.05181885	4.33333349
627.05578613	4.35294104
627.05993652	4.35294104
627.05993652	4.33333349
627.06402588	4.33333349
627.06817627	4.33333349
627.07226563	4.33333349
627.07226563	4.35294104
627.07641602	4.33333349
627.08044434	4.31372547
627.08459473	4.29411745
627.08868408	4.27450991
627.09277344	4.31372547
627.09277344	4.33333349
627.09680176	4.31372547
627.10089111	4.27450991
627.10510254	4.27450991
627.10510254	4.27450991
627.10913086	4.29411745
627.11322021	4.29411745
627.11749268	4.29411745
627.11749268	4.29411745
627.12145996	4.27450991
627.12554932	4.27450991
627.12957764	4.29411745
627.13360596	4.27450991
627.13781738	4.27450991
627.13781738	4.27450991
627.14196777	4.27450991
627.14593506	4.25490189
627.15002441	4.25490189
627.15002441	4.27450991
627.15417480	4.29411745
627.15832520	4.29411745
627.16247559	4.27450991
627.16247559	4.23529434
627.16644287	4.25490189
627.17053223	4.25490189
627.17468262	4.27450991
627.17877197	4.25490189
627.18280029	4.23529434
627.18280029	4.23529434
627.18688965	4.21568632
627.19097900	4.21568632
627.19519043	4.23529434
627.19519043	4.21568632
627.19915771	4.25490189
627.20343018	4.23529434
627.20745850	4.23529434
627.20745850	4.21568632
627.21154785	4.21568632
627.21569824	4.23529434
627.21972656	4.21568632
627.22387695	4.15686274
627.22796631	4.07843161
627.22796631	4.19607830
627.23211670	4.23529434
627.23602295	4.23529434
627.24023438	4.19607830
627.24023438	4.17647076
627.24432373	4.15686274
627.24841309	4.15686274
627.25256348	4.19607830
627.25256348	4.21568632
627.25659180	4.21568632
627.26068115	4.21568632
627.26483154	4.03921556
627.26892090	3.43137264
627.27294922	2.88235283
627.27294922	2.88235283
627.27709961	2.88235283
627.28125000	2.88235283
627.28533936	2.90196085
627.28533936	2.90196085
627.28948975	2.88235283
627.29351807	2.88235283
627.29760742	2.90196085
627.29760742	2.90196085
627.30175781	2.90196085
627.30584717	2.90196085
627.30981445	2.86274505
627.31396484	2.86274505
627.31811523	2.88235283
627.31811523	2.88235283
627.32220459	2.86274505
627.32617188	2.88235283
627.33044434	2.90196085
627.33044434	2.88235283
627.33447266	2.92156863
627.33862305	2.94117641
627.34277344	2.98039222
627.34277344	2.88235283
627.34674072	2.86274505
627.35089111	2.88235283
627.35491943	3.09803915
627.35913086	3.17647052
627.36309814	3.35294127
627.36309814	3.41176462
627.36724854	3.33333325
627.37127686	3.39215684
627.37542725	3.15686274
627.37542725	3.45098042
627.37939453	4.21568632
627.38354492	4.21568632
627.38769531	4.21568632
627.38769531	4.21568632
627.39178467	4.21568632
627.39599609	4.23529434
627.39599609	4.23529434
627.39984131	4.21568632
627.40399170	4.21568632
627.40808105	4.19607830
627.40808105	4.21568632
627.41223145	4.23529434
627.41632080	4.23529434
627.42034912	4.23529434
627.42034912	4.21568632
627.42449951	4.21568632
627.42864990	4.21568632
627.43280029	4.21568632
627.43280029	4.21568632
627.43676758	4.23529434
627.44091797	4.23529434
627.44091797	4.19607830
627.44494629	4.21568632
627.44909668	4.19607830
627.45318604	4.11764717
627.45318604	4.21568632
627.45739746	4.23529434
627.46136475	4.21568632
627.46551514	4.21568632
627.46551514	4.21568632
627.46948242	4.25490189
627.47369385	4.27450991
627.47778320	4.25490189
627.47778320	4.25490189
627.48193359	4.23529434
627.48596191	4.21568632
627.48596191	4.21568632
627.49005127	4.25490189
627.49420166	4.25490189
627.49835205	4.23529434
627.49835205	4.25490189
627.50250244	4.25490189
627.50646973	4.25490189
627.51055908	4.25490189
627.51055908	4.27450991
627.51470947	4.29411745
627.51885986	4.25490189
627.52301025	4.23529434
627.52301025	4.25490189
627.52697754	4.25490189
627.53112793	4.27450991
627.53112793	4.25490189
627.53521729	4.27450991
627.53924561	4.27450991
627.54351807	4.29411745
627.54351807	4.29411745
627.54748535	4.29411745
627.55163574	4.29411745
627.55572510	4.27450991
627.55572510	4.29411745
627.55969238	4.27450991
627.56378174	4.27450991
627.56799316	4.29411745
627.57208252	4.29411745
627.57617188	4.29411745
627.57617188	4.27450991
627.58020020	4.27450991
627.58435059	4.27450991
627.58843994	4.27450991
627.58843994	4.27450991
627.59259033	4.27450991
627.59661865	4.27450991
627.60070801	4.25490189
627.60070801	4.25490189
627.60479736	4.25490189
627.60894775	4.29411745
627.61309814	4.29411745
627.61706543	4.29411745
627.62115479	4.23529434
627.62115479	4.23529434
627.62530518	4.27450991
627.62945557	4.29411745
627.63342285	4.29411745
627.63342285	4.29411745
627.63751221	4.29411745
627.64166260	4.27450991
627.64581299	4.27450991
627.64581299	4.27450991
627.64978027	4.29411745
627.65393066	4.29411745
627.65802002	4.29411745
627.66217041	4.27450991
627.66632080	4.25490189
627.66632080	4.25490189
627.67041016	4.29411745
627.67449951	4.27450991
627.67858887	4.27450991
627.67858887	4.27450991
627.68267822	4.27450991
627.68664551	4.21568632
627.69085693	4.27450991
627.69085693	4.29411745
627.69488525	4.29411745
627.69897461	4.29411745
627.70306396	4.27450991
627.70715332	4.29411745
627.71130371	4.25490189
627.71130371	4.29411745
627.71545410	4.29411745
627.71942139	4.31372547
627.72357178	4.29411745
627.72357178	4.31372547
627.72766113	4.31372547
627.73187256	4.31372547
627.73596191	4.31372547
627.73596191	4.31372547
627.73999023	4.31372547
627.74401855	4.31372547
627.74816895	4.31372547
627.75238037	4.31372547
627.75646973	4.31372547
627.75646973	4.29411745
627.76031494	4.31372547
627.76458740	4.35294104
627.76867676	4.33333349
627.76867676	4.33333349
627.77282715	4.33333349
627.77679443	4.33333349
627.78088379	4.31372547
627.78088379	4.33333349
627.78503418	4.33333349
627.78918457	4.33333349
627.79315186	4.33333349
627.79748535	4.31372547
627.80145264	4.31372547
627.80145264	4.31372547
627.80554199	4.31372547
627.80957031	4.31372547
627.81365967	4.33333349
627.81365967	4.33333349
627.81774902	4.33333349
627.82189941	4.29411745
627.82604980	4.31372547
627.82604980	4.31372547
627.83001709	4.31372547
627.83416748	4.31372547
627.83831787	4.29411745
627.84240723	4.31372547
627.84655762	4.29411745
627.84655762	4.29411745
627.85052490	4.31372547
627.85467529	4.29411745
627.85876465	4.31372547
627.85876465	4.31372547
627.86291504	4.31372547
627.86682129	4.31372547
627.87103271	4.29411745
627.87103271	4.31372547
627.87512207	4.31372547
627.87927246	4.29411745
627.87927246	4.27450991
627.88342285	4.25490189
627.88745117	4.31372547
627.89154053	4.31372547
627.89154053	4.31372547
627.89569092	4.31372547
627.89965820	4.31372547
627.90380859	4.31372547
627.90380859	4.31372547
627.90789795	4.31372547
627.91204834	4.29411745
627.91619873	4.31372547
627.91619873	4.31372547
627.92022705	4.31372547
627.92443848	4.29411745
627.92443848	4.29411745
627.92846680	4.29411745
627.93255615	4.31372547
627.93670654	4.31372547
627.93670654	4.31372547
627.94061279	4.31372547
627.94476318	4.29411745
627.94897461	4.29411745
627.94897461	4.31372547
627.95288086	4.29411745
627.95703125	4.31372547
627.96118164	4.31372547
627.96118164	4.31372547
627.96527100	4.29411745
627.96942139	4.31372547
627.96942139	4.31372547
627.97338867	4.33333349
627.97753906	4.31372547
627.98162842	4.31372547
627.98162842	4.29411745
627.98577881	4.31372547
627.98974609	4.31372547
627.99389648	4.29411745
627.99389648	4.29411745
627.99798584	4.31372547
628.00213623	4.29411745
628.00634766	4.31372547
628.00634766	4.31372547
628.01043701	4.29411745
628.01440430	4.31372547
628.01440430	4.31372547
628.01855469	4.31372547
628.02270508	4.31372547
628.02679443	4.31372547
628.02679443	4.31372547
628.03088379	4.31372547
628.03497314	4.29411745
628.03912354	4.29411745
628.03912354	4.29411745
628.04309082	4.31372547
628.04718018	4.31372547
628.05145264	4.31372547
628.05541992	4.31372547
628.05957031	4.31372547
628.05957031	4.29411745
628.06359863	4.29411745
628.06768799	4.29411745
628.07183838	4.31372547
628.07183838	4.31372547
628.07592773	4.31372547
628.07995605	4.29411745
628.08410645	4.29411745
628.08410645	4.31372547
628.08819580	4.31372547
628.09234619	4.29411745
628.09649658	4.31372547
628.10046387	4.31372547
628.10467529	4.31372547
628.10467529	4.29411745
628.10870361	4.29411745
628.11285400	4.31372547
628.11694336	4.31372547
628.11694336	4.31372547
628.12091064	4.29411745
628.12506104	4.31372547
628.12915039	4.31372547
628.12915039	4.31372547
628.13330078	4.31372547
628.13745117	4.31372547
628.14147949	4.29411745
628.14562988	4.27450991
628.14971924	4.29411745
628.14971924	4.31372547
628.15374756	4.31372547
628.15783691	4.33333349
628.16198730	4.33333349
628.16198730	4.31372547
628.16607666	4.31372547
628.17010498	4.31372547
628.17425537	4.31372547
628.17425537	4.29411745
628.17834473	4.31372547
628.18243408	4.31372547
628.18652344	4.29411745
628.19061279	4.29411745
628.19464111	4.31372547
628.19464111	4.29411745
628.19879150	4.27450991
628.20300293	4.27450991
628.20709229	4.27450991
628.20709229	4.27450991
628.21112061	4.29411745
628.21520996	4.27450991
628.21929932	4.27450991
628.21929932	4.23529434
628.22351074	4.25490189
628.22747803	4.27450991
628.23156738	4.27450991
628.23571777	4.27450991
628.23986816	4.29411745
628.23986816	4.27450991
628.24377441	4.27450991
628.24792480	4.27450991
628.25213623	4.29411745
628.25213623	4.29411745
628.25616455	4.25490189
628.26019287	4.27450991
628.26446533	4.27450991
628.26446533	4.29411745
628.26849365	4.27450991
628.27258301	4.29411745
628.27661133	4.27450991
628.28063965	4.23529434
628.28479004	4.27450991
628.28479004	4.31372547
628.28894043	4.31372547
628.29302979	4.31372547
628.29718018	4.29411745
628.29718018	4.31372547
628.30120850	4.31372547
628.30529785	4.29411745
628.30944824	4.29411745
628.30944824	4.29411745
628.31353760	4.29411745
628.31756592	4.29411745
628.32171631	4.29411745
628.32580566	4.31372547
628.32995605	4.29411745
628.32995605	4.31372547
628.33398438	4.31372547
628.33807373	4.29411745
628.34222412	4.25490189
628.34222412	4.29411745
628.34637451	4.31372547
628.35046387	4.33333349
628.35443115	4.31372547
628.35443115	4.31372547
628.35858154	4.29411745
628.36273193	4.27450991
628.36273193	4.27450991
628.36682129	4.29411745
628.37078857	4.31372547
628.37493896	4.31372547
628.37493896	4.31372547
628.37902832	4.29411745
628.38317871	4.27450991
628.38720703	4.27450991
628.38720703	4.31372547
628.39141846	4.31372547
628.39544678	4.31372547
628.39953613	4.33333349
628.39953613	4.31372547
628.40356445	4.29411745
628.40765381	4.27450991
628.40765381	4.29411745
628.41180420	4.29411745
628.41589355	4.31372547
628.42004395	4.31372547
628.42004395	4.29411745
628.42407227	4.31372547
628.42816162	4.29411745
628.43231201	4.31372547
628.43231201	4.31372547
628.43646240	4.29411745
628.44049072	4.27450991
628.44451904	4.31372547
628.44451904	4.31372547
628.44860840	4.31372547
628.45281982	4.31372547
628.45281982	4.29411745
628.45697021	4.29411745
628.46087646	4.31372547
628.46502686	4.31372547
628.46502686	4.31372547
628.46917725	4.31372547
628.47332764	4.31372547
628.47741699	4.31372547
628.47741699	4.29411745
628.48144531	4.29411745
628.48559570	4.31372547
628.48974609	4.31372547
628.48974609	4.31372547
628.49365234	4.31372547
628.49774170	4.31372547
628.49774170	4.33333349
628.50195313	4.31372547
628.50610352	4.29411745
628.51007080	4.31372547
628.51007080	4.33333349
628.51416016	4.33333349
628.51843262	4.31372547
628.52246094	4.27450991
628.52246094	4.31372547
628.52655029	4.31372547
628.53070068	4.31372547
628.53466797	4.33333349
628.53881836	4.31372547
628.54296875	4.31372547
628.54296875	4.31372547
628.54699707	4.31372547
628.55108643	4.33333349
628.55517578	4.33333349
628.55517578	4.33333349
628.55932617	4.31372547
628.56347656	4.31372547
628.56750488	4.33333349
628.56750488	4.31372547
628.57147217	4.31372547
628.57568359	4.33333349
628.57983398	4.35294104
628.58380127	4.33333349
628.58795166	4.33333349
628.58795166	4.33333349
628.59204102	4.33333349
628.59625244	4.33333349
628.60034180	4.33333349
628.60034180	4.31372547
628.60443115	4.33333349
628.60845947	4.35294104
628.61260986	4.35294104
628.61260986	4.35294104
628.61676025	4.35294104
628.62078857	4.37254906
628.62481689	4.29411745
628.62890625	4.35294104
628.63305664	4.35294104
628.63305664	4.33333349
628.63714600	4.31372547
628.64123535	4.33333349
628.64544678	4.31372547
628.64544678	4.27450991
628.64941406	4.29411745
628.65356445	4.33333349
628.65765381	4.33333349
628.65765381	4.35294104
628.66168213	4.31372547
628.66577148	4.29411745
628.66992188	4.33333349
628.67395020	4.33333349
628.67803955	4.29411745
628.67803955	4.27450991
628.68212891	4.31372547
628.68621826	4.31372547
628.69042969	4.31372547
628.69042969	4.31372547
628.69445801	4.29411745
628.69854736	4.29411745
628.70263672	4.27450991
628.70263672	4.29411745
628.70678711	4.31372547
628.71099854	4.29411745
628.71496582	4.27450991
628.71911621	4.27450991
628.72326660	4.29411745
628.72326660	4.29411745
628.72735596	4.27450991
628.73150635	4.29411745
628.73547363	4.29411745
628.73547363	4.29411745
628.73962402	4.29411745
628.74371338	4.29411745
628.74786377	4.29411745
628.74786377	4.27450991
628.75177002	4.31372547
628.75592041	4.27450991
628.76007080	4.33333349
628.76403809	4.31372547
628.76818848	4.31372547
628.76818848	4.31372547
628.77227783	4.29411745
628.77642822	4.29411745
628.78057861	4.31372547
628.78057861	4.31372547
628.78460693	4.29411745
628.78875732	4.29411745
628.79284668	4.31372547
628.79284668	4.35294104
628.79699707	4.33333349
628.80108643	4.31372547
628.80505371	4.29411745
628.80920410	4.29411745
628.81329346	4.33333349
628.81329346	4.29411745
628.81738281	4.31372547
628.82147217	4.33333349
628.82556152	4.35294104
628.82556152	4.33333349
628.82965088	4.33333349
628.83380127	4.35294104
628.83789063	4.35294104
628.83789063	4.35294104
628.84191895	4.31372547
628.84600830	4.29411745
628.84600830	4.33333349
628.85015869	4.35294104
628.85412598	4.37254906
628.85839844	4.35294104
628.85839844	4.35294104
628.86242676	4.35294104
628.86651611	4.33333349
628.87072754	4.35294104
628.87072754	4.35294104
628.87469482	4.35294104
628.87878418	4.33333349
628.88293457	4.33333349
628.88293457	4.31372547
628.88708496	4.31372547
628.89117432	4.33333349
628.89117432	4.35294104
628.89514160	4.37254906
628.89923096	4.35294104
628.90338135	4.35294104
628.90338135	4.31372547
628.90740967	4.35294104
628.91149902	4.35294104
628.91564941	4.35294104
628.91564941	4.31372547
628.91973877	4.37254906
628.92395020	4.35294104
628.92810059	4.29411745
628.92810059	4.31372547
628.93212891	4.37254906
628.93615723	4.37254906
628.93615723	4.35294104
628.94030762	4.29411745
628.94439697	4.33333349
628.94842529	4.33333349
628.94842529	4.31372547
628.95251465	4.37254906
628.95666504	4.37254906
628.96075439	4.35294104
628.96075439	4.31372547
628.96478271	4.37254906
628.96887207	4.35294104
628.97308350	4.35294104
628.97308350	4.35294104
628.97717285	4.35294104
628.98132324	4.37254906
628.98132324	4.33333349
628.98541260	4.35294104
628.98944092	4.37254906
628.99359131	4.35294104
628.99359131	4.33333349
628.99768066	4.35294104
629.00164795	4.37254906
629.00579834	4.37254906
629.00579834	4.37254906
629.00994873	4.33333349
629.01403809	4.37254906
629.01794434	4.31372547
629.02215576	4.33333349
629.02630615	4.33333349
629.02630615	4.35294104
629.03039551	4.33333349
629.03442383	4.33333349
629.03857422	4.33333349
629.03857422	4.33333349
629.04266357	4.29411745
629.04681396	4.21568632
629.05096436	3.86274505
629.05096436	2.88235283
629.05493164	2.90196085
629.05908203	2.90196085
629.06317139	2.90196085
629.06726074	2.90196085
629.07147217	2.90196085
629.07147217	2.90196085
629.07537842	2.90196085
629.07946777	2.90196085
629.08361816	2.90196085
629.08361816	2.90196085
629.08764648	2.90196085
629.09173584	2.90196085
629.09588623	2.90196085
629.09588623	2.90196085
629.10003662	2.90196085
629.10412598	2.90196085
629.10815430	2.90196085
629.11242676	2.90196085
629.11645508	2.90196085
629.11645508	2.90196085
629.12060547	2.90196085
629.12451172	2.90196085
629.12866211	2.90196085
629.12866211	2.90196085
629.13281250	2.90196085
629.13690186	2.90196085
629.14099121	2.90196085
629.14099121	2.90196085
629.14495850	2.90196085
629.14916992	2.90196085
629.15325928	2.90196085
629.15740967	2.90196085
629.16156006	2.90196085
629.16156006	2.90196085
629.16552734	2.90196085
629.16961670	2.90196085
629.17376709	2.90196085
629.17376709	2.90196085
629.17785645	2.90196085
629.18200684	2.90196085
629.18603516	2.90196085
629.18603516	2.90196085
629.19018555	2.90196085
629.19427490	2.90196085
629.19836426	2.90196085
629.20233154	2.90196085
629.20654297	2.90196085
629.20654297	2.90196085
629.21063232	2.90196085
629.21466064	2.90196085
629.21875000	2.90196085
629.21875000	2.90196085
629.22290039	2.90196085
629.22705078	2.90196085
629.23114014	2.90196085
629.23114014	2.90196085
629.23516846	2.90196085
629.23944092	2.90196085
629.24346924	2.90196085
629.24755859	2.90196085
629.25164795	2.90196085
629.25164795	2.90196085
629.25567627	2.90196085
629.25976563	2.90196085
629.26385498	2.90196085
629.26385498	2.90196085
629.26788330	2.90196085
629.27203369	2.90196085
629.27612305	2.90196085
629.27612305	2.90196085
629.28027344	2.90196085
629.28442383	2.90196085
629.28839111	2.90196085
629.29254150	2.90196085
629.29663086	2.90196085
629.29663086	2.90196085
629.30084229	2.90196085
629.30480957	2.90196085
629.30895996	2.90196085
629.30895996	2.90196085
629.31304932	2.90196085
629.31707764	2.90196085
629.32122803	2.90196085
629.32122803	2.90196085
629.32531738	2.90196085
629.32934570	2.90196085
629.32934570	2.90196085
629.33355713	2.90196085
629.33764648	2.90196085
629.34179688	2.90196085
629.34179688	2.90196085
629.34576416	2.90196085
629.34991455	2.90196085
629.35400391	2.90196085
629.35400391	2.90196085
629.35803223	2.90196085
629.36218262	2.90196085
629.36633301	2.90196085
629.36633301	2.88235283
629.37036133	2.88235283
629.37445068	2.88235283
629.37445068	2.88235283
629.37847900	2.88235283
629.38256836	2.88235283
629.38677979	2.88235283
629.38677979	2.88235283
629.39093018	2.84313726
629.39489746	2.84313726
629.39892578	2.84313726
629.39892578	2.90196085
629.40313721	2.84313726
629.40728760	2.86274505
629.41149902	2.98039222
629.41149902	3.29411769
629.41546631	3.80392146
629.41955566	4.25490189
629.41955566	4.25490189
629.42370605	4.25490189
629.42779541	4.27450991
629.43194580	4.27450991
629.43194580	4.29411745
629.43591309	4.29411745
629.44000244	4.29411745
629.44415283	4.29411745
629.44415283	4.31372547
629.44818115	4.29411745
629.45239258	4.29411745
629.45642090	4.33333349
629.45642090	4.31372547
629.46057129	4.29411745
629.46472168	4.31372547
629.46472168	4.31372547
629.46868896	4.31372547
629.47283936	4.29411745
629.47692871	4.31372547
629.47692871	4.31372547
629.48107910	4.29411745
629.48510742	4.29411745
629.48931885	4.29411745
629.48931885	4.31372547
629.49328613	4.33333349
629.49743652	4.33333349
629.50152588	4.29411745
629.50555420	4.29411745
629.50970459	4.29411745
629.50970459	4.31372547
629.51379395	4.33333349
629.51788330	4.33333349
629.52203369	4.29411745
629.52203369	4.31372547
629.52606201	4.29411745
629.53021240	4.31372547
629.53436279	4.31372547
629.53436279	4.33333349
629.53845215	4.31372547
629.54241943	4.31372547
629.54656982	4.31372547
629.55072021	4.33333349
629.55480957	4.33333349
629.55480957	4.33333349
629.55883789	4.33333349
629.56292725	4.31372547
629.56701660	4.31372547
629.56701660	4.31372547
629.57122803	4.33333349
629.57513428	4.31372547
629.57940674	4.31372547
629.57940674	4.31372547
629.58337402	4.31372547
629.58758545	4.31372547
629.59173584	4.31372547
629.59570313	4.31372547
629.59979248	4.31372547
629.59979248	4.29411745
629.60394287	4.31372547
629.60809326	4.31372547
629.61224365	4.31372547
629.61224365	4.31372547
629.61621094	4.31372547
629.62036133	4.33333349
629.62445068	4.29411745
629.62445068	4.29411745
629.62841797	4.31372547
629.63256836	4.31372547
629.63665771	4.31372547
629.64074707	4.31372547
629.64489746	4.31372547
629.64489746	4.31372547
629.64886475	4.31372547
629.65301514	4.33333349
629.65716553	4.31372547
629.65716553	4.29411745
629.66131592	4.33333349
629.66540527	4.31372547
629.66937256	4.29411745
629.66937256	4.29411745
629.67352295	4.31372547
629.67767334	4.31372547
629.68188477	4.29411745
629.68585205	4.29411745
629.68988037	4.29411745
629.68988037	4.31372547
629.69409180	4.29411745
629.69818115	4.31372547
629.70227051	4.31372547
629.70227051	4.31372547
629.70642090	4.31372547
629.71038818	4.29411745
629.71453857	4.29411745
629.71453857	4.31372547
629.71850586	4.31372547
629.72265625	4.31372547
629.72674561	4.29411745
629.73089600	4.29411745
629.73504639	4.27450991
629.73504639	4.29411745
629.73907471	4.29411745
629.74322510	4.29411745
629.74731445	4.29411745
629.74731445	4.29411745
629.75140381	4.29411745
629.75537109	4.29411745
629.75958252	4.29411745
629.75958252	4.27450991
629.76367188	4.29411745
629.76770020	4.31372547
629.77178955	4.29411745
629.77587891	4.29411745
629.78002930	4.29411745
629.78002930	4.29411745
629.78411865	4.27450991
629.78826904	4.29411745
629.79241943	4.29411745
629.79241943	4.29411745
629.79638672	4.29411745
629.80053711	4.29411745
629.80468750	4.29411745
629.80468750	4.29411745
629.80865479	4.29411745
629.81274414	4.29411745
629.81274414	4.31372547
629.81689453	4.31372547
629.82110596	4.29411745
629.82513428	4.29411745
629.82513428	4.27450991
629.82910156	4.29411745
629.83337402	4.29411745
629.83740234	4.29411745
629.83740234	4.31372547
629.84155273	4.31372547
629.84552002	4.29411745
629.84960938	4.29411745
629.84960938	4.31372547
629.85375977	4.31372547
629.85791016	4.31372547
629.85791016	4.29411745
629.86193848	4.31372547
629.86602783	4.29411745
629.87017822	4.29411745
629.87017822	4.33333349
629.87420654	4.31372547
629.87841797	4.31372547
629.88244629	4.31372547
629.88244629	4.31372547
629.88653564	4.29411745
629.89056396	4.29411745
629.89471436	4.29411745
629.89471436	4.31372547
629.89874268	4.27450991
629.90283203	4.27450991
629.90283203	4.29411745
629.90704346	4.29411745
629.91113281	4.31372547
629.91528320	4.31372547
629.91528320	4.29411745
629.91937256	4.29411745
629.92340088	4.29411745
629.92755127	4.25490189
629.92755127	4.29411745
629.93170166	4.31372547
629.93566895	4.31372547
629.93975830	4.31372547
629.93975830	4.29411745
629.94390869	4.29411745
629.94805908	4.29411745
629.94805908	4.29411745
629.95202637	4.31372547
629.95617676	4.31372547
629.96044922	4.29411745
629.96044922	4.29411745
629.96447754	4.31372547
629.96856689	4.31372547
629.97271729	4.29411745
629.97271729	4.31372547
629.97674561	4.31372547
629.98083496	4.31372547
629.98492432	4.31372547
629.98895264	4.31372547
629.99304199	4.31372547
629.99304199	4.29411745
629.99719238	4.31372547
630.00128174	4.31372547
630.00537109	4.31372547
630.00537109	4.31372547
630.00939941	4.31372547
630.01342773	4.31372547
630.01763916	4.31372547
630.01763916	4.33333349
630.02178955	4.29411745
630.02575684	4.29411745
630.02990723	4.31372547
630.03399658	4.29411745
630.03814697	4.31372547
630.03814697	4.31372547
630.04211426	4.31372547
630.04638672	4.31372547
630.05041504	4.31372547
630.05041504	4.31372547
630.05450439	4.35294104
630.05859375	4.33333349
630.06262207	4.31372547
630.06262207	4.29411745
630.06671143	4.31372547
630.07086182	4.31372547
630.07501221	4.33333349
630.07904053	4.33333349
630.08312988	4.31372547
630.08312988	4.29411745
630.08728027	4.31372547
630.09143066	4.33333349
630.09552002	4.33333349
630.09552002	4.31372547
630.09954834	4.33333349
630.10363770	4.33333349
630.10784912	4.33333349
630.10784912	4.33333349
630.11193848	4.29411745
630.11608887	4.31372547
630.12005615	4.33333349
630.12414551	4.31372547
630.12829590	4.31372547
630.12829590	4.29411745
630.13238525	4.31372547
630.13641357	4.31372547
630.14056396	4.31372547
630.14056396	4.31372547
630.14459229	4.33333349
630.14880371	4.31372547
630.15289307	4.29411745
630.15289307	4.29411745
630.15698242	4.29411745
630.16107178	4.31372547
630.16522217	4.29411745
630.16925049	4.27450991
630.17346191	4.29411745
630.17346191	4.29411745
630.17742920	4.31372547
630.18157959	4.31372547
630.18566895	4.31372547
630.18566895	4.31372547
630.18963623	4.31372547
630.19378662	4.33333349
630.19793701	4.31372547
630.19793701	4.31372547
630.20202637	4.31372547
630.20605469	4.29411745
630.21014404	4.29411745
630.21429443	4.27450991
630.21844482	4.31372547
630.21844482	4.29411745
630.22259521	4.31372547
630.22656250	4.31372547
630.23071289	4.31372547
630.23071289	4.31372547
630.23486328	4.29411745
630.23895264	4.29411745
630.24291992	4.31372547
630.24291992	4.31372547
630.24707031	4.27450991
630.25115967	4.29411745
630.25524902	4.29411745
630.25946045	4.29411745
630.26336670	4.29411745
630.26336670	4.25490189
630.26751709	4.31372547
630.27172852	4.31372547
630.27575684	4.29411745
630.27575684	4.31372547
630.27978516	4.33333349
630.28393555	4.31372547
630.28802490	4.29411745
630.28802490	4.31372547
630.29223633	4.31372547
630.29632568	4.31372547
630.29632568	4.31372547
630.30041504	4.33333349
630.30444336	4.29411745
630.30859375	4.17647076
630.30859375	4.25490189
630.31250000	4.29411745
630.31665039	4.27450991
630.32080078	4.31372547
630.32080078	4.31372547
630.32489014	4.29411745
630.32897949	4.31372547
630.33300781	4.33333349
630.33300781	4.31372547
630.33715820	4.33333349
630.34130859	4.33333349
630.34130859	4.31372547
630.34539795	4.25490189
630.34936523	4.27450991
630.35351563	4.31372547
630.35351563	4.31372547
630.35766602	4.31372547
630.36175537	4.31372547
630.36590576	4.29411745
630.36590576	4.31372547
630.36993408	4.31372547
630.37402344	4.29411745
630.37817383	4.31372547
630.37817383	4.33333349
630.38226318	4.31372547
630.38635254	4.29411745
630.38635254	4.27450991
630.39038086	4.29411745
630.39453125	4.31372547
630.39874268	4.31372547
630.39874268	4.31372547
630.40258789	4.27450991
630.40679932	4.29411745
630.41088867	4.29411745
630.41088867	4.31372547
630.41503906	4.31372547
630.41912842	4.21568632
630.42315674	4.29411745
630.42315674	4.29411745
630.42730713	4.31372547
630.43139648	4.33333349
630.43139648	4.31372547
630.43548584	4.31372547
630.43951416	4.29411745
630.44366455	4.29411745
630.44366455	4.31372547
630.44775391	4.31372547
630.45190430	4.29411745
630.45605469	4.27450991
630.45605469	4.27450991
630.46008301	4.27450991
630.46423340	4.27450991
630.46832275	4.25490189
630.47247314	4.29411745
630.47644043	4.29411745
630.47644043	4.29411745
630.48059082	4.29411745
630.48468018	4.27450991
630.48883057	4.25490189
630.48883057	4.27450991
630.49279785	4.27450991
630.49694824	4.29411745
630.50103760	4.29411745
630.50103760	4.27450991
630.50518799	4.25490189
630.50927734	4.23529434
630.51342773	4.29411745
630.51733398	4.31372547
630.52148438	4.27450991
630.52148438	4.21568632
630.52563477	4.29411745
630.52966309	4.27450991
630.53375244	4.27450991
630.53375244	4.29411745
630.53790283	4.29411745
630.54205322	4.29411745
630.54614258	4.27450991
630.54614258	4.27450991
630.55017090	4.29411745
630.55444336	4.31372547
630.55841064	4.29411745
630.56250000	4.25490189
630.56671143	4.27450991
630.56671143	4.27450991
630.57067871	4.27450991
630.57476807	4.29411745
630.57879639	4.29411745
630.57879639	4.27450991
630.58282471	4.27450991
630.58703613	4.27450991
630.59112549	4.23529434
630.59112549	4.27450991
630.59527588	4.31372547
630.59942627	4.31372547
630.60333252	4.27450991
630.60754395	4.29411745
630.61169434	4.29411745
630.61169434	4.31372547
630.61578369	4.31372547
630.61981201	4.31372547
630.62390137	4.31372547
630.62390137	4.29411745
630.62799072	4.31372547
630.63220215	4.31372547
630.63623047	4.31372547
630.63623047	4.31372547
630.64031982	4.31372547
630.64434814	4.29411745
630.64849854	4.31372547
630.65258789	4.33333349
630.65667725	4.31372547
630.65667725	4.31372547
630.66076660	4.29411745
630.66485596	4.25490189
630.66900635	4.27450991
630.66900635	4.31372547
630.67303467	4.33333349
630.67718506	4.31372547
630.68145752	4.31372547
630.68145752	4.31372547
630.68536377	4.29411745
630.68951416	4.31372547
630.69354248	4.31372547
630.69757080	4.31372547
630.70166016	4.29411745
630.70166016	4.29411745
630.70587158	4.29411745
630.70989990	4.29411745
630.71398926	4.27450991
630.71398926	4.31372547
630.71813965	4.29411745
630.72229004	4.31372547
630.72637939	4.31372547
630.72637939	4.31372547
630.73040771	4.31372547
630.73449707	4.31372547
630.73864746	4.31372547
630.74285889	4.29411745
630.74676514	4.31372547
630.74676514	4.31372547
630.75091553	4.31372547
630.75506592	4.31372547
630.75903320	4.31372547
630.75903320	4.31372547
630.76324463	4.31372547
630.76739502	4.31372547
630.77136230	4.31372547
630.77136230	4.33333349
630.77551270	4.31372547
630.77966309	4.31372547
630.77966309	4.31372547
630.78363037	4.29411745
630.78771973	4.27450991
630.79187012	4.29411745
630.79187012	4.29411745
630.79620361	4.27450991
630.80004883	4.29411745
630.80419922	4.27450991
630.80419922	4.27450991
630.80828857	4.27450991
630.81237793	4.31372547
630.81646729	4.31372547
630.81646729	4.29411745
630.82043457	4.31372547
630.82458496	4.31372547
630.82458496	4.31372547
630.82873535	4.31372547
630.83288574	4.31372547
630.83697510	4.31372547
630.83697510	4.31372547
630.84100342	4.31372547
630.84515381	4.31372547
630.84924316	4.31372547
630.84924316	4.31372547
630.85333252	4.31372547
630.85742188	4.31372547
630.86157227	4.33333349
630.86157227	4.31372547
630.86566162	4.31372547
630.86975098	4.31372547
630.86975098	4.31372547
630.87377930	4.31372547
630.87792969	4.31372547
630.88201904	4.27450991
630.88201904	4.27450991
630.88610840	4.31372547
630.89013672	4.31372547
630.89440918	4.33333349
630.89440918	4.31372547
630.89843750	4.31372547
630.90252686	4.31372547
630.90673828	4.27450991
630.90673828	4.27450991
630.91070557	4.33333349
630.91479492	4.31372547
630.91479492	4.31372547
630.91894531	4.31372547
630.92309570	4.31372547
630.92706299	4.29411745
630.92706299	4.31372547
630.93115234	4.33333349
630.93524170	4.31372547
630.93939209	4.29411745
630.93939209	4.31372547
630.94342041	4.31372547
630.94757080	4.29411745
630.95166016	4.31372547
630.95581055	4.33333349
630.95996094	4.31372547
630.95996094	4.31372547
630.96392822	4.31372547
630.96807861	4.31372547
630.97222900	4.29411745
630.97222900	4.31372547
630.97631836	4.31372547
630.98046875	4.33333349
630.98443604	4.33333349
630.98443604	4.33333349
630.98858643	4.31372547
630.99267578	4.33333349
630.99676514	4.31372547
631.00073242	4.33333349
631.00494385	4.33333349
631.00494385	4.33333349
631.00903320	4.29411745
631.01312256	4.33333349
631.01715088	4.33333349
631.01715088	4.33333349
631.02142334	4.31372547
631.02545166	4.29411745
631.02960205	4.31372547
631.02960205	4.33333349
631.03356934	4.33333349
631.03765869	4.33333349
631.04180908	4.33333349
631.04595947	4.31372547
631.05004883	4.31372547
631.05004883	4.31372547
631.05401611	4.31372547
631.05816650	4.35294104
631.06225586	4.31372547
631.06225586	4.31372547
631.06646729	4.29411745
631.07043457	4.33333349
631.07452393	4.31372547
631.07452393	4.33333349
631.07867432	4.33333349
631.08282471	4.33333349
631.08709717	4.33333349
631.09094238	4.35294104
631.09509277	4.33333349
631.09509277	4.35294104
631.09918213	4.31372547
631.10327148	4.25490189
631.10748291	4.31372547
631.10748291	4.35294104
631.11145020	4.37254906
631.11553955	4.35294104
631.11968994	4.33333349
631.11968994	4.29411745
631.12365723	4.29411745
631.12774658	4.33333349
631.13195801	4.27450991
631.13598633	4.31372547
631.14013672	4.33333349
631.14013672	4.31372547
631.14410400	4.31372547
631.14831543	4.33333349
631.15252686	4.33333349
631.15252686	4.33333349
631.15661621	4.33333349
631.16058350	4.29411745
631.16467285	4.25490189
631.16467285	4.27450991
631.16882324	4.29411745
631.17291260	4.31372547
631.17687988	4.31372547
631.18103027	4.33333349
631.18511963	4.31372547
631.18511963	4.29411745
631.18927002	4.31372547
631.19342041	4.31372547
631.19738770	4.29411745
631.19738770	4.31372547
631.20147705	4.31372547
631.20562744	4.33333349
631.20971680	4.31372547
631.20971680	4.33333349
631.21374512	4.31372547
631.21783447	4.37254906
631.22204590	4.33333349
631.22613525	4.33333349
631.23028564	4.31372547
631.23028564	4.31372547
631.23431396	4.35294104
631.23846436	4.33333349
631.24255371	4.35294104
631.24255371	4.33333349
631.24664307	4.35294104
631.25067139	4.35294104
631.25482178	4.35294104
631.25482178	4.37254906
631.25885010	4.35294104
631.26300049	4.35294104
631.26300049	4.35294104
631.26696777	4.33333349
631.27111816	4.35294104
631.27539063	4.37254906
631.27539063	4.35294104
631.27941895	4.37254906
631.28350830	4.35294104
631.28747559	4.33333349
631.28747559	4.35294104
631.29162598	4.37254906
631.29571533	4.37254906
631.29992676	4.39215708
631.29992676	4.35294104
631.30389404	4.35294104
631.30798340	4.35294104
631.30798340	4.37254906
631.31213379	4.35294104
631.31634521	4.37254906
631.32043457	4.35294104
631.32043457	4.33333349
631.32440186	4.35294104
631.32849121	4.35294104
631.33264160	4.35294104
631.33264160	4.37254906
631.33673096	4.37254906
631.34075928	4.37254906
631.34484863	4.35294104
631.34484863	4.35294104
631.34899902	4.37254906
631.35308838	4.37254906
631.35308838	4.37254906
631.35711670	4.35294104
631.36145020	4.37254906
631.36547852	4.35294104
631.36547852	4.37254906
631.36950684	4.37254906
631.37365723	4.37254906
631.37768555	4.37254906
631.37768555	4.37254906
631.38177490	4.35294104
631.38586426	4.35294104
631.39001465	4.37254906
631.39001465	4.37254906
631.39398193	4.37254906
631.39813232	4.37254906
631.39813232	4.37254906
631.40228271	4.35294104
631.40631104	4.33333349
631.41052246	4.35294104
631.41052246	4.37254906
631.41448975	4.37254906
631.41864014	4.37254906
631.42279053	4.37254906
631.42279053	4.35294104
631.42694092	4.33333349
631.43090820	4.35294104
631.43499756	4.33333349
631.43914795	4.33333349
631.44329834	4.35294104
631.44329834	4.31372547
631.44738770	4.35294104
631.45135498	4.37254906
631.45556641	4.37254906
631.45556641	4.37254906
631.45971680	4.33333349
631.46368408	4.31372547
631.46783447	4.33333349
631.46783447	4.33333349
631.47198486	4.33333349
631.47607422	4.33333349
631.48016357	4.33333349
631.48419189	4.31372547
631.48840332	4.31372547
631.48840332	4.31372547
631.49243164	4.33333349
631.49652100	4.33333349
631.50061035	4.33333349
631.50061035	4.31372547
631.50469971	4.27450991
631.50866699	4.27450991
631.51281738	4.29411745
631.51281738	4.31372547
631.51702881	4.31372547
631.52099609	4.27450991
631.52514648	4.27450991
631.52929688	4.27450991
631.53338623	4.27450991
631.53338623	4.29411745
631.53735352	4.29411745
631.54150391	4.25490189
631.54565430	4.23529434
631.54565430	4.27450991
631.54974365	4.29411745
631.55395508	4.29411745
631.55786133	4.29411745
631.55786133	4.27450991
631.56201172	4.25490189
631.56616211	4.25490189
631.57019043	4.27450991
631.57434082	4.27450991
631.57836914	4.27450991
631.57836914	4.25490189
631.58251953	4.23529434
631.58660889	4.21568632
631.59075928	4.17647076
631.59075928	4.23529434
631.59472656	4.25490189
631.59887695	4.23529434
631.60296631	4.17647076
631.60296631	4.13725471
631.60717773	3.72549009
631.61114502	2.86274505
631.61541748	2.84313726
631.61938477	2.86274505
631.62347412	2.86274505
631.62347412	2.86274505
631.62744141	2.86274505
631.63153076	2.86274505
631.63574219	2.86274505
631.63574219	2.86274505
631.63989258	2.86274505
631.64398193	2.86274505
631.64801025	2.86274505
631.64801025	2.86274505
631.65216064	2.86274505
631.65625000	2.86274505
631.66040039	2.86274505
631.66436768	2.86274505
631.66845703	2.84313726
631.66845703	2.86274505
631.67266846	2.86274505
631.67681885	2.86274505
631.68090820	2.86274505
631.68090820	2.84313726
631.68487549	2.86274505
631.68896484	2.86274505
631.69305420	2.86274505
631.69305420	2.86274505
631.69726563	2.86274505
631.70135498	2.84313726
631.70538330	2.86274505
631.70947266	2.82352948
631.71362305	2.82352948
631.71362305	2.88235283
631.71759033	2.92156863
631.72174072	2.82352948
631.72589111	2.84313726
631.72589111	2.86274505
631.72998047	3.29411769
631.73394775	4.29411745
631.73809814	4.31372547
631.73809814	4.33333349
631.74218750	4.37254906
631.74633789	4.39215708
631.74633789	4.41176462
631.75048828	4.41176462
631.75451660	4.43137264
631.75860596	4.43137264
631.75860596	4.45098019
631.76275635	4.45098019
631.76684570	4.45098019
631.77099609	4.45098019
631.77099609	4.45098019
631.77502441	4.45098019
631.77911377	4.47058821
631.78332520	4.47058821
631.78332520	4.47058821
631.78741455	4.47058821
631.79144287	4.47058821
631.79144287	4.47058821
631.79547119	4.47058821
631.79962158	4.47058821
631.80377197	4.47058821
631.80377197	4.47058821
631.80773926	4.47058821
631.81188965	4.47058821
631.81604004	4.47058821
631.81604004	4.47058821
631.82019043	4.47058821
631.82415771	4.47058821
631.82836914	4.47058821
631.82836914	4.47058821
631.83239746	4.47058821
631.83654785	4.47058821
631.83654785	4.47058821
631.84069824	4.47058821
631.84466553	4.47058821
631.84881592	4.47058821
631.84881592	4.47058821
631.85290527	4.47058821
631.85705566	4.47058821
631.86114502	4.47058821
631.86114502	4.47058821
631.86517334	4.47058821
631.86944580	4.47058821
631.87335205	4.47058821
631.87335205	4.47058821
631.87756348	4.47058821
631.88153076	4.47058821
631.88153076	4.47058821
631.88562012	4.47058821
631.88977051	4.47058821
631.89392090	4.47058821
631.89392090	4.47058821
631.89794922	4.47058821
631.90203857	4.47058821
631.90618896	4.45098019
631.90618896	4.45098019
631.91033936	4.45098019
631.91442871	4.45098019
631.91839600	4.45098019
631.92254639	4.45098019
631.92663574	4.45098019
631.92663574	4.45098019
631.93078613	4.45098019
631.93475342	4.45098019
631.93890381	4.45098019
631.93890381	4.45098019
631.94299316	4.45098019
631.94714355	4.45098019
631.95123291	4.45098019
631.95123291	4.45098019
631.95538330	4.45098019
631.95941162	4.45098019
631.96356201	4.45098019
631.96771240	4.45098019
631.97167969	4.45098019
631.97167969	4.45098019
631.97583008	4.45098019
631.97991943	4.45098019
631.98400879	4.45098019
631.98400879	4.45098019
631.98803711	4.45098019
631.99212646	4.45098019
631.99627686	4.45098019
631.99627686	4.43137264
632.00042725	4.45098019
632.00451660	4.45098019
632.00848389	4.43137264
632.01263428	4.43137264
632.01690674	4.43137264
632.01690674	4.43137264
632.02087402	4.43137264
632.02484131	4.43137264
632.02899170	4.43137264
632.02899170	4.43137264
632.03314209	4.43137264
632.03723145	4.43137264
632.04138184	4.43137264
632.04138184	4.43137264
632.04528809	4.43137264
632.04943848	4.43137264
632.05364990	4.43137264
632.05780029	4.43137264
632.06176758	4.43137264
632.06176758	4.43137264
632.06585693	4.43137264
632.07000732	4.41176462
632.07415771	4.41176462
632.07415771	4.41176462
632.07818604	4.41176462
632.08245850	4.41176462
632.08636475	4.41176462
632.08636475	4.41176462
632.09051514	4.41176462
632.09466553	4.41176462
632.09863281	4.41176462
632.10278320	4.41176462
632.10693359	4.41176462
632.10693359	4.41176462
632.11102295	4.41176462
632.11505127	4.41176462
632.11907959	4.41176462
632.11907959	4.41176462
632.12322998	4.41176462
632.12738037	4.41176462
632.13153076	4.41176462
632.13153076	4.41176462
632.13549805	4.41176462
632.13958740	4.41176462
632.14373779	4.41176462
632.14776611	4.41176462
632.15185547	4.41176462
632.15185547	4.41176462
632.15600586	4.41176462
632.16009521	4.41176462
632.16424561	4.39215708
632.16424561	4.41176462
632.16839600	4.39215708
632.17242432	4.39215708
632.17657471	4.39215708
632.17657471	4.39215708
632.18066406	4.39215708
632.18475342	4.39215708
632.18878174	4.39215708
632.19287109	4.39215708
632.19689941	4.39215708
632.19689941	4.39215708
632.20111084	4.39215708
632.20513916	4.39215708
632.20935059	4.39215708
632.20935059	4.39215708
632.21337891	4.39215708
632.21746826	4.39215708
632.22161865	4.39215708
632.22161865	4.39215708
632.22564697	4.39215708
632.22973633	4.39215708
632.22973633	4.39215708
632.23388672	4.39215708
632.23803711	4.39215708
632.24206543	4.39215708
632.24206543	4.39215708
632.24615479	4.37254906
632.25024414	4.37254906
632.25439453	4.37254906
632.25439453	4.37254906
632.25830078	4.37254906
632.26251221	4.37254906
632.26660156	4.37254906
632.26660156	4.37254906
632.27075195	4.37254906
632.27490234	4.37254906
632.27490234	4.37254906
632.27893066	4.37254906
632.28295898	4.37254906
632.28710938	4.37254906
632.28710938	4.37254906
632.29125977	4.37254906
632.29541016	4.37254906
632.29937744	4.35294104
632.29937744	4.37254906
632.30358887	4.37254906
632.30761719	4.37254906
632.31176758	4.37254906
632.31176758	4.37254906
632.31579590	4.37254906
632.31982422	4.37254906
632.31982422	4.37254906
632.32397461	4.37254906
632.32812500	4.37254906
632.33209229	4.37254906
632.33209229	4.37254906
632.33618164	4.37254906
632.34039307	4.35294104
632.34448242	4.37254906
632.34448242	4.37254906
632.34844971	4.37254906
632.35260010	4.37254906
632.35687256	4.37254906
632.35687256	4.37254906
632.36090088	4.37254906
632.36505127	4.37254906
632.36505127	4.35294104
632.36901855	4.37254906
632.37310791	4.37254906
632.37719727	4.37254906
632.37719727	4.35294104
632.38128662	4.31372547
632.38537598	4.25490189
632.38946533	4.23529434
632.38946533	4.25490189
632.39361572	4.23529434
632.39776611	4.23529434
632.40185547	4.15686274
632.40582275	2.96078420
632.40997314	2.90196085
632.40997314	2.90196085
632.41412354	2.90196085
632.41809082	2.90196085
632.42236328	2.90196085
632.42236328	2.90196085
632.42633057	2.90196085
632.43041992	2.90196085
632.43457031	2.90196085
632.43457031	2.90196085
632.43859863	2.90196085
632.44274902	2.90196085
632.44683838	2.90196085
632.45098877	2.90196085
632.45513916	2.90196085
632.45513916	2.90196085
632.45910645	2.90196085
632.46325684	2.90196085
632.46740723	2.90196085
632.46740723	2.90196085
632.47149658	2.90196085
632.47552490	2.90196085
632.47967529	2.90196085
632.47967529	2.90196085
632.48376465	2.90196085
632.48791504	2.90196085
632.49194336	2.90196085
632.49603271	2.90196085
632.50012207	2.90196085
632.50012207	2.90196085
632.50433350	2.90196085
632.50836182	2.90196085
632.51232910	2.90196085
632.51232910	2.90196085
632.51647949	2.90196085
632.52069092	2.90196085
632.52478027	2.90196085
632.52478027	2.90196085
632.52880859	2.90196085
632.53289795	2.90196085
632.53698730	2.90196085
632.54119873	2.90196085
632.54528809	2.90196085
632.54528809	2.90196085
632.54943848	2.90196085
632.55340576	2.90196085
632.55749512	2.90196085
632.55749512	2.90196085
632.56158447	2.90196085
632.56573486	2.90196085
632.56976318	2.90196085
632.56976318	2.90196085
632.57385254	2.90196085
632.57806396	2.90196085
632.58203125	2.90196085
632.58618164	2.90196085
632.59045410	2.90196085
632.59045410	2.90196085
632.59442139	2.90196085
632.59857178	2.90196085
632.60253906	2.90196085
632.60253906	2.90196085
632.60668945	2.90196085
632.61077881	2.90196085
632.61492920	2.90196085
632.61492920	2.90196085
632.61889648	2.90196085
632.62298584	2.90196085
632.62719727	2.90196085
632.63122559	2.90196085
632.63537598	2.90196085
632.63537598	2.90196085
632.63940430	2.90196085
632.64349365	2.90196085
632.64764404	2.90196085
632.64764404	2.90196085
632.65179443	2.90196085
632.65582275	2.90196085
632.65991211	2.90196085
632.65991211	2.90196085
632.66406250	2.90196085
632.66833496	2.90196085
632.67218018	2.90196085
632.67639160	2.88235283
632.68035889	2.90196085
632.68035889	2.90196085
632.68450928	2.90196085
632.68853760	2.90196085
632.69262695	2.90196085
632.69262695	2.90196085
632.69677734	2.90196085
632.70086670	2.88235283
632.70501709	2.90196085
632.70501709	2.90196085
632.70904541	2.88235283
632.71319580	2.90196085
632.71319580	2.90196085
632.71728516	2.88235283
632.72137451	2.88235283
632.72552490	2.88235283
632.72552490	2.88235283
632.72955322	2.88235283
632.73364258	2.90196085
632.73779297	2.90196085
632.73779297	2.88235283
632.74188232	2.90196085
632.74584961	2.88235283
632.75006104	2.88235283
632.75006104	2.88235283
632.75415039	2.88235283
632.75823975	2.90196085
632.75823975	2.88235283
632.76239014	2.86274505
632.76641846	2.88235283
632.77050781	2.88235283
632.77050781	2.88235283
632.77471924	2.88235283
632.77868652	2.90196085
632.78277588	2.88235283
632.78277588	2.88235283
632.78692627	2.88235283
632.79107666	2.88235283
632.79510498	2.86274505
632.79510498	2.88235283
632.79913330	2.88235283
632.80340576	2.88235283
632.80340576	2.88235283
632.80737305	2.88235283
632.81152344	2.88235283
632.81567383	2.88235283
632.81567383	2.88235283
632.81964111	2.88235283
632.82373047	2.90196085
632.82775879	2.90196085
632.82775879	2.88235283
632.83197021	2.90196085
632.83593750	2.88235283
632.84008789	2.88235283
632.84008789	2.86274505
632.84423828	2.88235283
632.84832764	2.88235283
632.84832764	2.88235283
632.85235596	2.88235283
632.85644531	2.88235283
632.86065674	2.88235283
632.86065674	2.88235283
632.86480713	2.88235283
632.86877441	2.88235283
632.87286377	2.88235283
632.87286377	2.86274505
632.87695313	2.86274505
632.88116455	2.96078420
632.88525391	2.88235283
632.88928223	2.88235283
632.89337158	2.92156863
632.89337158	3.17647052
632.89752197	2.84313726
632.90161133	3.03921580
632.90570068	3.25490189
632.90570068	3.15686274
632.90972900	3.05882359
632.91381836	3.31372547
632.91796875	3.23529410
632.91796875	3.09803915
632.92205811	3.43137264
632.92614746	4.17647076
632.93041992	4.21568632
632.93438721	4.13725471
632.93847656	4.23529434
632.93847656	4.25490189
632.94250488	4.27450991
632.94665527	4.27450991
632.95062256	4.23529434
632.95062256	4.23529434
632.95483398	4.23529434
632.95886230	4.19607830
632.96295166	4.17647076
632.96295166	4.23529434
632.96710205	4.23529434
632.97125244	4.21568632
632.97534180	4.21568632
632.97937012	4.23529434
632.98345947	4.23529434
632.98345947	4.25490189
632.98767090	4.23529434
632.99182129	4.25490189
632.99591064	4.23529434
632.99591064	4.23529434
632.99987793	4.23529434
633.00402832	4.21568632
633.00805664	4.13725471
633.00805664	3.49019599
633.01220703	2.88235283
633.01635742	2.92156863
633.02032471	3.52941179
633.02447510	3.17647052
633.02862549	2.88235283
633.02862549	2.88235283
633.03259277	2.86274505
633.03668213	2.90196085
633.04089355	3.41176462
633.04089355	3.76470590
633.04498291	3.09803915
633.04901123	2.86274505
633.05316162	2.86274505
633.05316162	2.88235283
633.05725098	2.94117641
633.06134033	2.86274505
633.06549072	2.86274505
633.06945801	3.03921580
633.07354736	3.31372547
633.07354736	3.25490189
633.07769775	3.21568632
633.08184814	3.27450991
633.08593750	3.29411769
633.08593750	3.31372547
633.08996582	3.76470590
633.09405518	4.27450991
633.09826660	4.29411745
633.09826660	4.25490189
633.10235596	4.23529434
633.10638428	4.25490189
633.11053467	4.29411745
633.11462402	4.29411745
633.11877441	4.25490189
633.11877441	4.25490189
633.12274170	4.27450991
633.12677002	4.29411745
633.13098145	4.29411745
633.13098145	4.27450991
633.13500977	4.27450991
633.13909912	4.29411745
633.14337158	4.25490189
633.14337158	4.27450991
633.14733887	4.27450991
633.15148926	4.23529434
633.15563965	4.29411745
633.15960693	4.29411745
633.16369629	4.29411745
633.16369629	4.29411745
633.16784668	4.29411745
633.17199707	4.29411745
633.17608643	4.29411745
633.17608643	4.29411745
633.18005371	4.29411745
633.18420410	4.29411745
633.18835449	4.27450991
633.18835449	4.31372547
633.19232178	4.29411745
633.19659424	4.29411745
633.19659424	4.29411745
633.20068359	4.31372547
633.20477295	4.29411745
633.20892334	4.31372547
633.20892334	4.31372547
633.21289063	4.31372547
633.21704102	4.29411745
633.22113037	4.29411745
633.22113037	4.29411745
633.22528076	4.29411745
633.22943115	4.29411745
633.23339844	4.29411745
633.23339844	4.31372547
633.23754883	4.31372547
633.24163818	4.29411745
633.24163818	4.31372547
633.24572754	4.29411745
633.24975586	4.29411745
633.25390625	4.29411745
633.25390625	4.31372547
633.25799561	4.29411745
633.26208496	4.29411745
633.26623535	4.31372547
633.26623535	4.31372547
633.27038574	4.31372547
633.27441406	4.29411745
633.27856445	4.29411745
633.27856445	4.29411745
633.28265381	4.31372547
633.28662109	4.29411745
633.28662109	4.29411745
633.29077148	4.31372547
633.29492188	4.35294104
633.29901123	4.33333349
633.29901123	4.29411745
633.30310059	4.29411745
633.30712891	4.31372547
633.31121826	4.29411745
633.31121826	4.29411745
633.31536865	4.29411745
633.31939697	4.31372547
633.32348633	4.31372547
633.32348633	4.29411745
633.32757568	4.29411745
633.33178711	4.29411745
633.33178711	4.31372547
633.33587646	4.33333349
633.33996582	4.31372547
633.34399414	4.29411745
633.34399414	4.31372547
633.34814453	4.31372547
633.35229492	4.29411745
633.35644531	4.29411745
633.35644531	4.29411745
633.36041260	4.29411745
633.36450195	4.29411745
633.36865234	4.29411745
633.37261963	4.31372547
633.37670898	4.31372547
633.37670898	4.31372547
633.38085938	4.31372547
633.38500977	4.27450991
633.38909912	4.29411745
633.38909912	4.29411745
633.39312744	4.29411745
633.39739990	4.31372547
633.40142822	4.29411745
633.40142822	4.31372547
633.40557861	4.29411745
633.40948486	4.31372547
633.41357422	4.29411745
633.41778564	4.31372547
633.42193604	4.29411745
633.42193604	4.31372547
633.42602539	4.27450991
633.43005371	4.27450991
633.43408203	4.29411745
633.43408203	4.29411745
633.43823242	4.31372547
633.44238281	4.31372547
633.44647217	4.29411745
633.44647217	4.29411745
633.45050049	4.31372547
633.45465088	4.31372547
633.45867920	4.31372547
633.46270752	4.29411745
633.46685791	4.29411745
633.46685791	4.29411745
633.47100830	4.31372547
633.47509766	4.33333349
633.47924805	4.29411745
633.47924805	4.27450991
633.48333740	4.29411745
633.48742676	4.29411745
633.49151611	4.31372547
633.49151611	4.29411745
633.49560547	4.29411745
633.49975586	4.29411745
633.50378418	4.31372547
633.50787354	4.31372547
633.51196289	4.31372547
633.51196289	4.27450991
633.51611328	4.29411745
633.52008057	4.31372547
633.52435303	4.31372547
633.52435303	4.29411745
633.52832031	4.29411745
633.53247070	4.29411745
633.53656006	4.31372547
633.53656006	4.33333349
633.54058838	4.33333349
633.54467773	4.33333349
633.54895020	4.31372547
633.55291748	4.31372547
633.55694580	4.35294104
633.55694580	4.33333349
633.56109619	4.33333349
633.56530762	4.33333349
633.56939697	4.33333349
633.56939697	4.33333349
633.57336426	4.33333349
633.57745361	4.33333349
633.58160400	4.33333349
633.58160400	4.31372547
633.58575439	4.33333349
633.58990479	4.33333349
633.59387207	4.33333349
633.59796143	4.29411745
633.60211182	4.31372547
633.60211182	4.33333349
633.60614014	4.33333349
633.61041260	4.31372547
633.61437988	4.31372547
633.61437988	4.31372547
633.61846924	4.31372547
633.62261963	4.33333349
633.62670898	4.31372547
633.62670898	4.31372547
633.63079834	4.31372547
633.63482666	4.31372547
633.63891602	4.33333349
633.64294434	4.33333349
633.64709473	4.33333349
633.64709473	4.33333349
633.65124512	4.33333349
633.65539551	4.31372547
633.65948486	4.31372547
633.65948486	4.31372547
633.66345215	4.33333349
633.66760254	4.33333349
633.67175293	4.33333349
633.67175293	4.31372547
633.67590332	4.31372547
633.68005371	4.33333349
633.68005371	4.33333349
633.68395996	4.31372547
633.68811035	4.33333349
633.69226074	4.33333349
633.69226074	4.35294104
633.69641113	4.33333349
633.70025635	4.33333349
633.70446777	4.31372547
633.70446777	4.33333349
633.70855713	4.31372547
633.71276855	4.33333349
633.71685791	4.33333349
633.71685791	4.33333349
633.72082520	4.33333349
633.72497559	4.33333349
633.72497559	4.33333349
633.72912598	4.31372547
633.73315430	4.33333349
633.73736572	4.35294104
633.73736572	4.33333349
633.74145508	4.33333349
633.74548340	4.35294104
633.74957275	4.33333349
633.74957275	4.33333349
633.75366211	4.33333349
633.75769043	4.35294104
633.76177979	4.33333349
633.76177979	4.33333349
633.76593018	4.31372547
633.77008057	4.33333349
633.77008057	4.33333349
633.77410889	4.35294104
633.77819824	4.33333349
633.78234863	4.33333349
633.78234863	4.33333349
633.78631592	4.33333349
633.79046631	4.33333349
633.79461670	4.33333349
633.79461670	4.35294104
633.79876709	4.31372547
633.80291748	4.33333349
633.80688477	4.33333349
633.80688477	4.33333349
633.81097412	4.33333349
633.81512451	4.33333349
633.81512451	4.33333349
633.81915283	4.33333349
633.82330322	4.33333349
633.82733154	4.31372547
633.82733154	4.31372547
633.83148193	4.33333349
633.83563232	4.33333349
633.83978271	4.31372547
633.83978271	4.31372547
633.84368896	4.31372547
633.84783936	4.31372547
633.85198975	4.33333349
633.85614014	4.33333349
633.86029053	4.31372547
633.86029053	4.27450991
633.86444092	4.25490189
633.86840820	4.29411745
633.87249756	4.31372547
633.87249756	4.31372547
633.87646484	4.29411745
633.88067627	4.27450991
633.88470459	4.25490189
633.88470459	4.27450991
633.88885498	4.25490189
633.89300537	4.25490189
633.89703369	4.27450991
633.90118408	4.23529434
633.90533447	4.19607830
633.90533447	4.19607830
633.90942383	4.23529434
633.91339111	4.23529434
633.91754150	4.23529434
633.91754150	4.21568632
633.92163086	4.21568632
633.92572021	4.15686274
633.92993164	3.54901958
633.92993164	2.84313726
633.93383789	2.88235283
633.93798828	3.25490189
633.94213867	2.84313726
633.94622803	2.86274505
633.95037842	2.84313726
633.95037842	2.86274505
633.95440674	2.84313726
633.95849609	2.96078420
633.96264648	3.09803915
633.96264648	2.90196085
633.96667480	2.86274505
633.97076416	2.82352948
633.97491455	2.82352948
633.97491455	2.96078420
633.97906494	3.00000000
633.98315430	2.84313726
633.98706055	2.84313726
633.99139404	2.86274505
633.99536133	2.82352948
633.99536133	2.84313726
633.99945068	2.82352948
634.00347900	2.82352948
634.00762939	2.82352948
634.00762939	2.82352948
634.01171875	2.84313726
634.01586914	3.03921580
634.02001953	3.45098042
634.02001953	3.68627453
634.02404785	3.13725495
634.02813721	2.86274505
634.03228760	2.82352948
634.03637695	2.96078420
634.04052734	3.11764717
634.04052734	3.35294127
634.04455566	3.33333325
634.04858398	3.23529410
634.05273438	3.11764717
634.05273438	3.25490189
634.05676270	3.41176462
634.06085205	3.27450991
634.06500244	2.94117641
634.06500244	2.82352948
634.06915283	2.88235283
634.07324219	3.03921580
634.07733154	3.43137264
634.08135986	3.50980401
634.08551025	3.33333325
634.08551025	3.15686274
634.08972168	3.13725495
634.09362793	3.37254906
