681.23211670	2.86274505
681.23211670	2.86274505
681.23626709	2.86274505
681.24041748	2.86274505
681.24450684	2.86274505
681.24450684	2.86274505
681.24847412	2.86274505
681.25262451	2.86274505
681.25677490	2.88235283
681.25677490	2.86274505
681.26074219	2.82352948
681.26489258	2.82352948
681.26892090	2.86274505
681.27313232	2.86274505
681.27716064	2.86274505
681.27716064	2.86274505
681.28125000	2.86274505
681.28533936	2.86274505
681.28955078	2.82352948
681.28955078	2.86274505
681.29364014	2.86274505
681.29779053	2.86274505
681.30181885	2.86274505
681.30181885	2.86274505
681.30590820	3.33333325
681.31005859	3.49019599
681.31414795	3.01960778
681.31811523	3.33333325
681.32226563	4.29411745
681.32226563	4.31372547
681.32641602	4.31372547
681.33056641	4.29411745
681.33459473	4.29411745
681.33459473	4.33333349
681.33880615	4.35294104
681.34277344	4.37254906
681.34686279	4.35294104
681.34686279	4.35294104
681.35095215	4.33333349
681.35510254	4.31372547
681.35913086	4.33333349
681.36334229	4.35294104
681.36737061	4.33333349
681.36737061	4.31372547
681.37145996	4.31372547
681.37554932	4.31372547
681.37969971	4.29411745
681.37969971	4.33333349
681.38385010	4.33333349
681.38775635	4.33333349
681.39196777	4.31372547
681.39196777	4.29411745
681.39611816	4.29411745
681.40020752	4.29411745
681.40020752	4.25490189
681.40417480	4.27450991
681.40826416	4.25490189
681.41247559	4.21568632
681.41247559	4.17647076
681.41656494	4.23529434
681.42065430	4.27450991
681.42480469	4.29411745
681.42480469	4.29411745
681.42883301	4.25490189
681.43298340	4.17647076
681.43707275	4.15686274
681.43707275	4.09803915
681.44110107	4.19607830
681.44519043	4.23529434
681.44519043	4.19607830
681.44934082	4.05882359
681.45336914	2.86274505
681.45758057	2.86274505
681.45758057	2.86274505
681.46154785	2.86274505
681.46575928	2.84313726
681.46978760	2.86274505
681.46978760	2.86274505
681.47393799	2.86274505
681.47784424	2.86274505
681.48193359	2.86274505
681.48193359	2.86274505
681.48614502	2.84313726
681.49029541	2.82352948
681.49029541	2.90196085
681.49438477	3.41176462
681.49835205	4.29411745
681.50250244	4.31372547
681.50250244	4.33333349
681.50665283	4.33333349
681.51080322	4.33333349
681.51489258	4.35294104
681.51489258	4.41176462
681.51892090	4.43137264
681.52307129	4.45098019
681.52716064	4.47058821
681.52716064	4.47058821
681.53112793	4.47058821
681.53533936	4.47058821
681.53533936	4.47058821
681.53942871	4.47058821
681.54351807	4.49019623
681.54766846	4.49019623
681.54766846	4.49019623
681.55181885	4.49019623
681.55584717	4.49019623
681.55993652	4.49019623
681.55993652	4.49019623
681.56408691	4.49019623
681.56805420	4.49019623
681.57220459	4.49019623
681.57220459	4.49019623
681.57635498	4.49019623
681.58044434	4.49019623
681.58044434	4.49019623
681.58441162	4.49019623
681.58862305	4.49019623
681.59277344	4.49019623
681.59277344	4.49019623
681.59680176	4.49019623
681.60095215	4.49019623
681.60491943	4.49019623
681.60491943	4.49019623
681.60900879	4.49019623
681.61315918	4.49019623
681.61730957	4.49019623
681.62133789	4.49019623
681.62542725	4.49019623
681.62542725	4.49019623
681.62957764	4.49019623
681.63372803	4.49019623
681.63781738	4.49019623
681.63781738	4.49019623
681.64178467	4.49019623
681.64593506	4.49019623
681.65008545	4.49019623
681.65008545	4.49019623
681.65417480	4.49019623
681.65808105	4.49019623
681.66229248	4.49019623
681.66644287	4.49019623
681.67053223	4.49019623
681.67053223	4.49019623
681.67449951	4.49019623
681.67883301	4.49019623
681.68280029	4.49019623
681.68280029	4.49019623
681.68695068	4.47058821
681.69110107	4.47058821
681.69506836	4.47058821
681.69506836	4.47058821
681.69921875	4.47058821
681.70324707	4.47058821
681.70745850	4.47058821
681.71148682	4.47058821
681.71551514	4.47058821
681.71551514	4.47058821
681.71966553	4.47058821
681.72375488	4.47058821
681.72796631	4.47058821
681.72796631	4.47058821
681.73193359	4.47058821
681.73602295	4.47058821
681.74017334	4.47058821
681.74017334	4.47058821
681.74432373	4.47058821
681.74835205	4.47058821
681.75244141	4.47058821
681.75659180	4.47058821
681.76068115	4.47058821
681.76068115	4.47058821
681.76483154	4.47058821
681.76879883	4.47058821
681.77301025	4.47058821
681.77301025	4.47058821
681.77703857	4.47058821
681.78112793	4.47058821
681.78515625	4.47058821
681.78515625	4.47058821
681.78930664	4.47058821
681.79339600	4.47058821
681.79748535	4.47058821
681.80157471	4.47058821
681.80578613	4.47058821
681.80578613	4.47058821
681.80981445	4.47058821
681.81396484	4.47058821
681.81811523	4.47058821
681.81811523	4.47058821
681.82208252	4.47058821
681.82617188	4.47058821
681.83032227	4.47058821
681.83032227	4.45098019
681.83441162	4.47058821
681.83843994	4.47058821
681.84252930	4.45098019
681.84661865	4.45098019
681.85083008	4.45098019
681.85083008	4.45098019
681.85479736	4.45098019
681.85888672	4.45098019
681.86303711	4.47058821
681.86303711	4.45098019
681.86718750	4.45098019
681.87127686	4.45098019
681.87530518	4.45098019
681.87530518	4.45098019
681.87939453	4.45098019
681.88354492	4.45098019
681.88354492	4.45098019
681.88769531	4.45098019
681.89172363	4.45098019
681.89575195	4.45098019
681.89575195	4.43137264
681.89996338	4.43137264
681.90399170	4.45098019
681.90814209	4.45098019
681.90814209	4.45098019
681.91217041	4.45098019
681.91625977	4.45098019
681.92041016	4.45098019
681.92041016	4.43137264
681.92456055	4.45098019
681.92871094	4.45098019
681.92871094	4.45098019
681.93280029	4.43137264
681.93676758	4.43137264
681.94104004	4.43137264
681.94104004	4.43137264
681.94494629	4.43137264
681.94909668	4.43137264
681.95318604	4.41176462
681.95318604	4.41176462
681.95733643	4.41176462
681.96148682	4.43137264
681.96539307	4.43137264
681.96539307	4.43137264
681.96954346	4.43137264
681.97369385	4.43137264
681.97369385	4.43137264
681.97784424	4.43137264
681.98175049	4.43137264
681.98590088	4.43137264
681.98590088	4.43137264
681.98999023	4.41176462
681.99414063	4.39215708
681.99829102	4.41176462
681.99829102	4.43137264
682.00225830	4.43137264
682.00640869	4.41176462
682.01049805	4.43137264
682.01049805	4.43137264
682.01458740	4.43137264
682.01873779	4.43137264
682.01873779	4.43137264
682.02270508	4.43137264
682.02685547	4.43137264
682.03094482	4.43137264
682.03094482	4.43137264
682.03497314	4.41176462
682.03912354	4.41176462
682.04327393	4.43137264
682.04327393	4.43137264
682.04742432	4.41176462
682.05151367	4.41176462
682.05554199	4.43137264
682.05963135	4.43137264
682.06372070	4.43137264
682.06372070	4.41176462
682.06793213	4.41176462
682.07189941	4.41176462
682.07604980	4.41176462
682.07604980	4.41176462
682.08013916	4.41176462
682.08428955	4.41176462
682.08843994	4.41176462
682.08843994	4.41176462
682.09240723	4.41176462
682.09661865	4.41176462
682.10064697	4.37254906
682.10479736	4.39215708
682.10882568	4.39215708
682.10882568	4.39215708
682.11285400	4.39215708
682.11700439	4.39215708
682.12115479	4.37254906
682.12115479	4.37254906
682.12512207	4.37254906
682.12927246	4.35294104
682.13336182	4.33333349
682.13336182	4.33333349
682.13757324	4.31372547
682.14166260	4.31372547
682.14581299	4.33333349
682.14984131	4.31372547
682.15386963	4.29411745
682.15386963	4.25490189
682.15802002	4.17647076
682.16204834	4.19607830
682.16613770	4.19607830
682.16613770	4.13725471
682.17022705	3.15686274
682.17437744	2.86274505
682.17852783	2.88235283
682.17852783	2.86274505
682.18249512	2.86274505
682.18676758	2.88235283
682.19079590	2.88235283
682.19488525	2.88235283
682.19903564	2.88235283
682.19903564	2.88235283
682.20300293	2.88235283
682.20715332	2.88235283
682.21130371	2.88235283
682.21130371	2.88235283
682.21533203	2.88235283
682.21942139	2.88235283
682.22351074	2.88235283
682.22351074	2.88235283
682.22766113	2.88235283
682.23168945	2.88235283
682.23577881	2.88235283
682.23986816	2.88235283
682.24401855	2.88235283
682.24401855	2.88235283
682.24816895	2.88235283
682.25213623	2.88235283
682.25622559	2.88235283
682.25622559	2.88235283
682.26037598	2.88235283
682.26452637	2.86274505
682.26861572	2.86274505
682.26861572	2.86274505
682.27270508	2.88235283
682.27667236	2.88235283
682.28088379	2.86274505
682.28497314	2.84313726
682.28906250	2.86274505
682.28906250	2.86274505
682.29315186	2.86274505
682.29724121	2.86274505
682.30139160	2.86274505
682.30139160	2.82352948
682.30541992	2.86274505
682.30950928	2.86274505
682.31378174	2.86274505
682.31378174	2.86274505
682.31774902	2.84313726
682.32189941	2.86274505
682.32586670	2.88235283
682.33001709	3.39215684
682.33416748	3.72549009
682.33416748	4.27450991
682.33831787	4.23529434
682.34228516	4.25490189
682.34637451	4.27450991
682.34637451	4.23529434
682.35046387	4.23529434
682.35455322	4.25490189
682.35876465	4.29411745
682.35876465	4.27450991
682.36279297	4.29411745
682.36688232	4.25490189
682.36688232	4.27450991
682.37103271	4.29411745
682.37512207	4.27450991
682.37915039	4.31372547
682.37915039	4.25490189
682.38323975	4.17647076
682.38739014	4.27450991
682.39154053	4.25490189
682.39154053	4.27450991
682.39544678	4.27450991
682.39971924	4.29411745
682.40368652	4.31372547
682.40368652	4.31372547
682.40783691	4.31372547
682.41198730	4.29411745
682.41198730	4.27450991
682.41595459	4.29411745
682.42010498	4.29411745
682.42425537	4.31372547
682.42425537	4.33333349
682.42840576	4.33333349
682.43237305	4.31372547
682.43652344	4.31372547
682.43652344	4.31372547
682.44067383	4.27450991
682.44482422	4.31372547
682.44897461	4.29411745
682.44897461	4.33333349
682.45294189	4.35294104
682.45703125	4.31372547
682.45703125	4.31372547
682.46118164	4.33333349
682.46527100	4.31372547
682.46923828	4.33333349
682.46923828	4.31372547
682.47338867	4.31372547
682.47753906	4.31372547
682.48168945	4.31372547
682.48168945	4.31372547
682.48571777	4.31372547
682.48974609	4.31372547
682.49389648	4.31372547
682.49389648	4.31372547
682.49810791	4.33333349
682.50219727	4.33333349
682.50219727	4.31372547
682.50622559	4.31372547
682.51031494	4.33333349
682.51440430	4.31372547
682.51440430	4.33333349
682.51861572	4.33333349
682.52252197	4.27450991
682.52685547	4.31372547
682.52685547	4.33333349
682.53076172	4.37254906
682.53491211	4.31372547
682.53906250	4.37254906
682.54302979	4.33333349
682.54711914	4.33333349
682.54711914	4.33333349
682.55126953	4.33333349
682.55541992	4.33333349
682.55944824	4.31372547
682.55944824	4.29411745
682.56353760	4.29411745
682.56768799	4.29411745
682.57183838	4.29411745
682.57183838	4.33333349
682.57580566	4.33333349
682.57995605	4.31372547
682.58404541	4.31372547
682.58819580	4.31372547
682.59228516	4.35294104
682.59228516	4.35294104
682.59625244	4.35294104
682.60040283	4.31372547
682.60455322	4.29411745
682.60455322	4.33333349
682.60864258	4.35294104
682.61273193	4.35294104
682.61682129	4.31372547
682.61682129	4.33333349
682.62091064	4.35294104
682.62500000	4.33333349
682.62915039	4.29411745
682.63311768	4.35294104
682.63726807	4.35294104
682.63726807	4.33333349
682.64141846	4.33333349
682.64550781	4.33333349
682.64953613	4.35294104
682.64953613	4.33333349
682.65362549	4.37254906
682.65777588	4.35294104
682.66192627	4.35294104
682.66192627	4.31372547
682.66589355	4.31372547
682.67004395	4.29411745
682.67413330	4.33333349
682.67828369	4.33333349
682.68243408	4.35294104
682.68243408	4.33333349
682.68640137	4.33333349
682.69055176	4.33333349
682.69470215	4.33333349
682.69470215	4.35294104
682.69885254	4.33333349
682.70281982	4.35294104
682.70697021	4.33333349
682.70697021	4.35294104
682.71105957	4.33333349
682.71514893	4.33333349
682.71911621	4.31372547
682.72326660	4.31372547
682.72741699	4.33333349
682.72741699	4.33333349
682.73150635	4.35294104
682.73559570	4.35294104
682.73974609	4.35294104
682.73974609	4.31372547
682.74377441	4.29411745
682.74786377	4.35294104
682.75195313	4.35294104
682.75195313	4.31372547
682.75604248	4.31372547
682.76013184	4.33333349
682.76422119	4.33333349
682.76843262	4.31372547
682.77258301	4.33333349
682.77258301	4.35294104
682.77655029	4.29411745
682.78063965	4.31372547
682.78515625	4.29411745
682.78515625	4.33333349
682.78887939	4.29411745
682.79290771	4.29411745
682.79693604	4.31372547
682.79693604	4.31372547
682.80102539	4.29411745
682.80523682	4.29411745
682.80920410	4.31372547
682.81335449	4.31372547
682.81744385	4.31372547
682.81744385	4.29411745
682.82165527	4.29411745
682.82574463	4.31372547
682.82977295	4.31372547
682.82977295	4.25490189
682.83380127	4.31372547
682.83801270	4.35294104
682.84204102	4.33333349
682.84204102	4.35294104
682.84606934	4.31372547
682.85021973	4.31372547
682.85021973	4.31372547
682.85437012	4.29411745
682.85845947	4.29411745
682.86260986	4.29411745
682.86260986	4.27450991
682.86676025	4.31372547
682.87072754	4.31372547
682.87487793	4.31372547
682.87487793	4.31372547
682.87902832	4.31372547
682.88293457	4.31372547
682.88708496	4.29411745
682.88708496	4.33333349
682.89129639	4.33333349
682.89538574	4.29411745
682.89538574	4.29411745
682.89941406	4.31372547
682.90350342	4.35294104
682.90777588	4.31372547
682.90777588	4.33333349
682.91180420	4.31372547
682.91589355	4.31372547
682.91979980	4.33333349
682.91979980	4.37254906
682.92401123	4.37254906
682.92816162	4.37254906
682.93225098	4.35294104
682.93225098	4.37254906
682.93621826	4.37254906
682.94036865	4.37254906
682.94036865	4.37254906
682.94451904	4.37254906
682.94866943	4.39215708
682.95275879	4.37254906
682.95275879	4.35294104
682.95684814	4.39215708
682.96093750	4.35294104
682.96502686	4.35294104
682.96502686	4.39215708
682.96911621	4.37254906
682.97320557	4.37254906
682.97717285	4.39215708
682.97717285	4.41176462
682.98132324	4.41176462
682.98547363	4.37254906
682.98547363	4.37254906
682.98950195	4.39215708
682.99377441	4.39215708
682.99774170	4.37254906
682.99774170	4.39215708
683.00183105	4.39215708
683.00585938	4.37254906
683.01000977	4.33333349
683.01000977	4.29411745
683.01409912	4.15686274
683.01831055	2.90196085
683.02246094	2.90196085
683.02642822	2.90196085
683.03051758	2.90196085
683.03051758	2.90196085
683.03460693	2.90196085
683.03875732	2.90196085
683.04278564	2.90196085
683.04278564	2.90196085
683.04687500	2.90196085
683.05096436	2.90196085
683.05517578	2.90196085
683.05517578	2.90196085
683.05926514	2.90196085
683.06323242	2.90196085
683.06738281	2.90196085
683.07153320	2.90196085
683.07562256	2.90196085
683.07562256	2.90196085
683.07983398	2.90196085
683.08380127	2.90196085
683.08795166	2.90196085
683.08795166	2.90196085
683.09197998	2.90196085
683.09613037	2.90196085
683.10021973	2.90196085
683.10021973	2.90196085
683.10430908	2.90196085
683.10839844	2.90196085
683.11248779	2.90196085
683.11651611	2.90196085
683.12078857	2.90196085
683.12078857	2.90196085
683.12481689	2.90196085
683.12896729	2.90196085
683.13305664	2.90196085
683.13305664	2.90196085
683.13702393	2.90196085
683.14117432	2.90196085
683.14532471	2.90196085
683.14532471	2.90196085
683.14941406	2.90196085
683.15344238	2.90196085
683.15753174	2.90196085
683.16162109	2.90196085
683.16583252	2.90196085
683.16583252	2.90196085
683.16979980	2.90196085
683.17388916	2.90196085
683.17803955	2.90196085
683.17803955	2.90196085
683.18218994	2.90196085
683.18621826	2.90196085
683.19030762	2.90196085
683.19030762	2.90196085
683.19445801	2.90196085
683.19854736	2.90196085
683.20269775	2.90196085
683.20678711	2.90196085
683.21075439	2.90196085
683.21075439	2.90196085
683.21490479	2.90196085
683.21899414	2.90196085
683.22314453	2.90196085
683.22314453	2.90196085
683.22717285	2.90196085
683.23126221	2.90196085
683.23535156	2.90196085
683.23535156	2.90196085
683.23950195	2.90196085
683.24353027	2.90196085
683.24780273	2.90196085
683.25183105	2.90196085
683.25598145	2.90196085
683.25598145	2.90196085
683.25994873	2.90196085
683.26403809	2.90196085
683.26818848	2.90196085
683.26818848	2.90196085
683.27227783	2.90196085
683.27636719	2.90196085
683.28039551	2.90196085
683.28039551	2.90196085
683.28448486	2.90196085
683.28869629	2.90196085
683.29278564	2.90196085
683.29675293	2.90196085
683.30084229	2.90196085
683.30084229	2.90196085
683.30505371	2.90196085
683.30920410	2.90196085
683.31329346	2.90196085
683.31329346	2.90196085
683.31726074	2.90196085
683.32147217	2.90196085
683.32556152	2.90196085
683.32556152	2.90196085
683.32965088	2.90196085
683.33380127	2.90196085
683.33380127	2.90196085
683.33776855	2.90196085
683.34191895	2.90196085
683.34600830	2.90196085
683.34600830	2.90196085
683.35003662	2.90196085
683.35412598	2.90196085
683.35821533	2.90196085
683.35821533	2.90196085
683.36236572	2.90196085
683.36651611	2.90196085
683.37054443	2.90196085
683.37054443	2.90196085
683.37463379	2.90196085
683.37872314	2.90196085
683.37872314	2.90196085
683.38287354	2.90196085
683.38690186	2.90196085
683.39099121	2.90196085
683.39099121	2.90196085
683.39514160	2.90196085
683.39923096	2.90196085
683.40338135	2.90196085
683.40338135	2.90196085
683.40740967	2.90196085
683.41149902	2.90196085
683.41558838	2.90196085
683.41558838	2.90196085
683.41979980	2.90196085
683.42376709	2.90196085
683.42376709	2.90196085
683.42791748	2.90196085
683.43206787	2.90196085
683.43615723	2.90196085
683.43615723	2.90196085
683.44018555	2.90196085
683.44433594	2.90196085
683.44842529	2.90196085
683.44842529	2.90196085
683.45257568	2.90196085
683.45672607	2.90196085
683.46081543	2.90196085
683.46081543	2.90196085
683.46478271	2.90196085
683.46887207	2.90196085
683.46887207	2.90196085
683.47308350	2.90196085
683.47698975	2.90196085
683.48114014	2.90196085
683.48114014	2.90196085
683.48529053	2.90196085
683.48937988	2.90196085
683.49359131	2.90196085
683.49359131	2.90196085
683.49755859	2.90196085
683.50170898	2.90196085
683.50585938	2.90196085
683.50982666	2.90196085
683.51391602	2.90196085
683.51391602	2.90196085
683.51800537	2.90196085
683.52221680	2.90196085
683.52624512	2.90196085
683.52624512	2.90196085
683.53027344	2.90196085
683.53442383	2.90196085
683.53851318	2.90196085
683.53851318	2.90196085
683.54260254	2.90196085
683.54675293	2.90196085
683.55078125	2.90196085
683.55499268	2.90196085
683.55902100	2.90196085
683.55902100	2.90196085
683.56317139	2.90196085
683.56719971	2.90196085
683.57135010	2.90196085
683.57135010	2.90196085
683.57543945	2.90196085
683.57952881	2.90196085
683.58367920	2.90196085
683.58367920	2.90196085
683.58776855	2.90196085
683.59173584	2.90196085
683.59588623	2.90196085
683.60003662	2.90196085
683.60412598	2.90196085
683.60412598	2.90196085
683.60809326	2.90196085
683.61230469	2.90196085
683.61639404	2.90196085
683.61639404	2.90196085
683.62042236	2.90196085
683.62457275	2.90196085
683.62878418	2.90196085
683.62878418	2.90196085
683.63281250	2.90196085
683.63690186	2.90196085
683.64093018	2.90196085
683.64508057	2.90196085
683.64916992	2.90196085
683.64916992	2.90196085
683.65325928	2.90196085
683.65728760	2.90196085
683.66137695	2.90196085
683.66137695	2.90196085
683.66552734	2.90196085
683.66961670	2.88235283
683.67376709	2.90196085
683.67376709	2.90196085
683.67779541	2.90196085
683.68194580	2.88235283
683.68603516	2.88235283
683.69018555	2.90196085
683.69415283	2.88235283
683.69415283	2.88235283
683.69830322	2.88235283
683.70245361	2.88235283
683.70660400	2.88235283
683.70660400	2.88235283
683.71051025	2.88235283
683.71472168	2.88235283
683.71881104	2.88235283
683.71881104	2.88235283
683.72290039	2.88235283
683.72698975	2.86274505
683.73095703	2.84313726
683.73516846	2.84313726
683.73931885	2.90196085
683.73931885	3.01960778
683.74340820	3.13725495
683.74743652	3.43137264
683.75152588	4.23529434
683.75152588	4.27450991
683.75567627	4.25490189
683.75982666	4.27450991
683.76391602	4.29411745
683.76391602	4.31372547
683.76794434	4.39215708
683.77203369	4.43137264
683.77612305	4.45098019
683.78027344	4.45098019
683.78424072	4.47058821
683.78424072	4.47058821
683.78839111	4.47058821
683.79248047	4.47058821
683.79663086	4.47058821
683.79663086	4.47058821
683.80078125	4.47058821
683.80474854	4.47058821
683.80889893	4.47058821
683.80889893	4.47058821
683.81304932	4.47058821
683.81719971	4.47058821
683.81719971	4.47058821
683.82116699	4.47058821
683.82531738	4.49019623
683.82940674	4.49019623
683.82940674	4.49019623
683.83349609	4.47058821
683.83746338	4.49019623
683.84173584	4.49019623
683.84173584	4.49019623
683.84582520	4.49019623
683.84991455	4.49019623
683.85400391	4.49019623
683.85400391	4.49019623
683.85797119	4.49019623
683.86218262	4.49019623
683.86218262	4.49019623
683.86633301	4.49019623
683.87030029	4.49019623
683.87445068	4.49019623
683.87445068	4.49019623
683.87854004	4.47058821
683.88269043	4.47058821
683.88690186	4.49019623
683.88690186	4.49019623
683.89074707	4.47058821
683.89489746	4.47058821
683.89898682	4.47058821
683.89898682	4.49019623
683.90313721	4.49019623
683.90728760	4.47058821
683.90728760	4.47058821
683.91125488	4.47058821
683.91534424	4.47058821
683.91955566	4.47058821
683.91955566	4.47058821
683.92364502	4.47058821
683.92779541	4.47058821
683.93176270	4.47058821
683.93176270	4.47058821
683.93591309	4.47058821
683.94006348	4.47058821
683.94421387	4.47058821
683.94421387	4.47058821
683.94824219	4.47058821
683.95227051	4.47058821
683.95227051	4.47058821
683.95648193	4.47058821
683.96038818	4.47058821
683.96447754	4.47058821
683.96447754	4.47058821
683.96875000	4.47058821
683.97277832	4.47058821
683.97686768	4.47058821
683.97686768	4.47058821
683.98089600	4.47058821
683.98498535	4.47058821
683.98913574	4.47058821
683.98913574	4.47058821
683.99322510	4.47058821
683.99737549	4.47058821
683.99737549	4.47058821
684.00134277	4.47058821
684.00549316	4.47058821
684.00970459	4.47058821
684.00970459	4.47058821
684.01373291	4.47058821
684.01776123	4.45098019
684.02185059	4.45098019
684.02185059	4.45098019
684.02600098	4.45098019
684.03015137	4.45098019
684.03411865	4.43137264
684.03826904	4.41176462
684.04241943	4.41176462
684.04241943	4.39215708
684.04650879	4.37254906
684.05059814	4.35294104
684.05474854	4.33333349
684.05474854	4.31372547
684.05877686	4.31372547
684.06286621	4.33333349
684.06701660	4.33333349
684.06701660	4.35294104
684.07098389	4.35294104
684.07513428	4.35294104
684.07922363	4.35294104
684.08337402	4.35294104
684.08752441	4.37254906
684.08752441	4.37254906
684.09149170	4.37254906
684.09564209	4.37254906
684.09973145	4.37254906
684.09973145	4.35294104
684.10382080	4.37254906
684.10791016	4.37254906
684.11199951	4.37254906
684.11199951	4.35294104
684.11608887	4.35294104
684.12023926	4.37254906
684.12420654	4.35294104
684.12835693	4.35294104
684.13244629	4.37254906
684.13244629	4.35294104
684.13665771	4.35294104
684.14080811	4.35294104
684.14477539	4.35294104
684.14477539	4.35294104
684.14886475	4.35294104
684.15301514	4.33333349
684.15716553	4.33333349
684.15716553	4.35294104
684.16113281	4.33333349
684.16516113	4.33333349
684.16943359	4.33333349
684.17352295	4.31372547
684.17761230	4.31372547
684.17761230	4.31372547
684.18176270	4.33333349
684.18566895	4.31372547
684.18988037	4.31372547
684.18988037	4.33333349
684.19384766	4.33333349
684.19805908	4.33333349
684.20214844	4.31372547
684.20214844	4.31372547
684.20629883	4.33333349
684.21038818	4.33333349
684.21435547	4.33333349
684.21856689	4.33333349
684.22277832	4.31372547
684.22277832	4.31372547
684.22674561	4.31372547
684.23077393	4.31372547
684.23486328	4.31372547
684.23486328	4.31372547
684.23907471	4.31372547
684.24316406	4.31372547
684.24731445	4.31372547
684.24731445	4.31372547
684.25128174	4.31372547
684.25543213	4.29411745
684.25982666	4.29411745
684.26361084	4.27450991
684.26770020	4.29411745
684.26770020	4.29411745
684.27178955	4.29411745
684.27587891	4.29411745
684.28002930	4.29411745
684.28002930	4.29411745
684.28405762	4.29411745
684.28808594	4.29411745
684.29217529	4.29411745
684.29217529	4.29411745
684.29638672	4.31372547
684.30047607	4.29411745
684.30047607	4.29411745
684.30456543	4.29411745
684.30871582	4.29411745
684.31274414	4.29411745
684.31274414	4.29411745
684.31689453	4.29411745
684.32086182	4.29411745
684.32495117	4.29411745
684.32495117	4.29411745
684.32910156	4.29411745
684.33319092	4.29411745
684.33734131	4.29411745
684.33734131	4.29411745
684.34130859	4.29411745
684.34545898	4.27450991
684.34545898	4.29411745
684.34960938	4.27450991
684.35375977	4.27450991
684.35784912	4.27450991
684.35784912	4.27450991
684.36187744	4.29411745
684.36596680	4.27450991
684.37011719	4.27450991
684.37011719	4.29411745
684.37426758	4.29411745
684.37823486	4.29411745
684.38250732	4.29411745
684.38250732	4.29411745
684.38653564	4.31372547
684.39062500	4.29411745
684.39062500	4.29411745
684.39477539	4.29411745
684.39874268	4.29411745
684.40283203	4.29411745
684.40283203	4.29411745
684.40698242	4.31372547
684.41107178	4.29411745
684.41510010	4.29411745
684.41510010	4.33333349
684.41925049	4.35294104
684.42333984	4.35294104
684.42755127	4.35294104
684.42755127	4.35294104
684.43151855	4.35294104
684.43572998	4.35294104
684.43572998	4.37254906
684.43981934	4.35294104
684.44396973	4.35294104
684.44805908	4.35294104
684.44805908	4.33333349
684.45202637	4.35294104
684.45611572	4.35294104
684.46026611	4.35294104
684.46026611	4.33333349
684.46435547	4.31372547
684.46838379	4.31372547
684.47247314	4.33333349
684.47668457	4.31372547
684.48077393	4.31372547
684.48077393	4.33333349
684.48474121	4.35294104
684.48889160	4.35294104
684.49304199	4.33333349
684.49304199	4.33333349
684.49719238	4.33333349
684.50115967	4.35294104
684.50531006	4.33333349
684.50531006	4.33333349
684.50939941	4.33333349
684.51354980	4.33333349
684.51763916	4.31372547
684.52185059	4.31372547
684.52575684	4.29411745
684.52575684	4.31372547
684.52984619	4.31372547
684.53399658	4.31372547
684.53820801	4.29411745
684.53820801	4.31372547
684.54211426	4.31372547
684.54620361	4.31372547
684.55035400	4.31372547
684.55035400	4.31372547
684.55438232	4.31372547
684.55853271	4.31372547
684.56280518	4.31372547
684.56683350	4.33333349
684.57092285	4.31372547
684.57092285	4.31372547
684.57489014	4.31372547
684.57904053	4.31372547
684.58306885	4.31372547
684.58306885	4.31372547
684.58721924	4.31372547
684.59118652	4.31372547
684.59539795	4.31372547
684.59539795	4.31372547
684.59954834	4.31372547
684.60363770	4.31372547
684.60772705	4.31372547
684.61175537	4.31372547
684.61584473	4.31372547
684.61584473	4.31372547
684.61999512	4.29411745
684.62414551	4.31372547
684.62823486	4.31372547
684.62823486	4.31372547
684.63220215	4.31372547
684.63635254	4.31372547
684.64050293	4.29411745
684.64050293	4.31372547
684.64440918	4.33333349
684.64874268	4.33333349
684.65277100	4.33333349
684.65686035	4.35294104
684.66101074	4.35294104
684.66101074	4.33333349
684.66497803	4.33333349
684.66912842	4.31372547
684.67327881	4.33333349
684.67327881	4.35294104
684.67736816	4.35294104
684.68139648	4.35294104
684.68554688	4.31372547
684.68554688	4.31372547
684.68969727	4.31372547
684.69378662	4.31372547
684.69793701	4.31372547
684.70190430	4.33333349
684.70605469	4.37254906
684.70605469	4.39215708
684.71014404	4.37254906
684.71423340	4.35294104
684.71838379	4.35294104
684.71838379	4.33333349
684.72241211	4.35294104
684.72656250	4.37254906
684.73059082	4.35294104
684.73059082	4.33333349
684.73468018	4.35294104
684.73870850	4.35294104
684.74285889	4.37254906
684.74700928	4.35294104
684.75109863	4.35294104
684.75109863	4.35294104
684.75512695	4.35294104
684.75921631	4.33333349
684.76336670	4.35294104
684.76336670	4.35294104
684.76751709	4.33333349
684.77160645	4.37254906
684.77575684	4.35294104
684.77575684	4.33333349
684.77972412	4.37254906
684.78387451	4.35294104
684.78387451	4.33333349
684.78796387	4.35294104
684.79199219	4.33333349
684.79608154	4.31372547
684.79608154	4.31372547
684.80017090	4.35294104
684.80432129	4.33333349
684.80847168	4.35294104
684.80847168	4.35294104
684.81250000	4.31372547
684.81658936	4.33333349
684.82073975	4.37254906
684.82073975	4.35294104
684.82470703	4.33333349
684.82885742	4.37254906
684.82885742	4.31372547
684.83300781	4.31372547
684.83715820	4.35294104
684.84124756	4.31372547
684.84124756	4.33333349
684.84521484	4.33333349
684.84942627	4.37254906
684.85357666	4.37254906
684.85357666	4.37254906
684.85754395	4.37254906
684.86169434	4.37254906
684.86572266	4.31372547
684.86572266	4.31372547
684.86987305	4.37254906
684.87396240	4.37254906
684.87396240	4.31372547
684.87799072	4.33333349
684.88208008	4.27450991
684.88629150	4.33333349
684.88629150	4.41176462
684.89044189	4.39215708
684.89453125	4.35294104
684.89862061	4.37254906
684.89862061	4.37254906
684.90277100	4.37254906
684.90673828	4.37254906
684.91082764	4.35294104
684.91082764	4.35294104
684.91479492	4.33333349
684.91906738	4.37254906
684.91906738	4.37254906
684.92309570	4.37254906
684.92724609	4.39215708
684.93139648	4.39215708
684.93139648	4.39215708
684.93530273	4.39215708
684.93951416	4.37254906
684.94360352	4.37254906
684.94360352	4.37254906
684.94775391	4.39215708
684.95190430	4.37254906
684.95599365	4.37254906
684.96002197	4.37254906
684.96411133	4.37254906
684.96411133	4.37254906
684.96826172	4.33333349
684.97229004	4.29411745
684.97625732	4.35294104
684.97625732	4.37254906
684.98052979	4.37254906
684.98461914	4.37254906
684.98876953	4.35294104
684.98876953	4.37254906
684.99273682	4.31372547
684.99682617	4.33333349
685.00097656	4.31372547
685.00494385	4.31372547
685.00909424	4.33333349
685.00909424	4.35294104
685.01324463	4.31372547
685.01739502	4.33333349
685.02148438	4.33333349
685.02148438	4.33333349
685.02545166	4.31372547
685.02978516	4.33333349
685.03375244	4.33333349
685.03375244	4.27450991
685.03778076	4.29411745
685.04180908	4.31372547
685.04595947	4.37254906
685.05010986	4.29411745
685.05426025	4.31372547
685.05426025	4.33333349
685.05834961	4.31372547
685.06231689	4.31372547
685.06652832	4.31372547
685.06652832	4.31372547
685.07061768	4.31372547
685.07476807	4.29411745
685.07891846	4.29411745
685.07891846	4.33333349
685.08294678	4.33333349
685.08703613	4.29411745
685.09112549	4.35294104
685.09509277	4.33333349
685.09930420	4.33333349
685.09930420	4.33333349
685.10339355	4.31372547
685.10748291	4.27450991
685.11163330	4.31372547
685.11163330	4.31372547
685.11578369	4.31372547
685.11987305	4.33333349
685.12390137	4.33333349
685.12390137	4.31372547
685.12805176	4.31372547
685.13232422	4.33333349
685.13616943	4.31372547
685.14031982	4.19607830
685.14440918	4.25490189
685.14440918	4.31372547
685.14837646	4.31372547
685.15252686	4.21568632
685.15673828	4.25490189
685.15673828	4.37254906
685.16070557	4.35294104
685.16491699	4.31372547
685.16894531	4.29411745
685.16894531	4.27450991
685.17297363	4.25490189
685.17718506	4.31372547
685.18121338	4.29411745
685.18524170	4.29411745
685.18939209	4.29411745
685.18939209	4.27450991
685.19354248	4.27450991
685.19769287	4.23529434
685.20184326	4.27450991
685.20184326	4.27450991
685.20581055	4.31372547
685.20989990	4.27450991
685.21405029	4.13725471
685.21405029	4.25490189
685.21807861	4.29411745
685.22222900	4.17647076
685.22625732	2.94117641
685.23034668	4.15686274
685.23449707	2.88235283
685.23449707	2.84313726
685.23852539	2.86274505
685.24279785	2.88235283
685.24676514	2.84313726
685.24676514	2.84313726
685.25091553	2.86274505
685.25506592	2.86274505
685.25915527	2.86274505
685.25915527	2.82352948
685.26312256	2.86274505
685.26727295	2.86274505
685.26727295	2.86274505
685.27136230	2.84313726
685.27532959	2.86274505
685.27954102	2.86274505
685.27954102	2.86274505
685.28363037	2.86274505
685.28778076	2.86274505
685.29187012	3.15686274
685.29187012	2.86274505
685.29589844	3.13725495
685.29998779	4.17647076
685.30413818	3.78431368
685.30413818	2.84313726
685.30822754	3.33333325
685.31237793	3.23529410
685.31237793	3.05882359
685.31634521	4.29411745
685.32049561	4.25490189
685.32458496	4.25490189
685.32458496	4.27450991
685.32873535	4.21568632
685.33264160	4.23529434
685.33685303	4.29411745
685.33685303	4.25490189
685.34100342	4.25490189
685.34515381	4.27450991
685.34912109	4.27450991
685.34912109	4.27450991
685.35327148	4.25490189
685.35736084	4.31372547
685.35736084	4.29411745
685.36151123	4.15686274
685.36553955	4.31372547
685.36981201	4.31372547
685.36981201	4.33333349
685.37377930	4.31372547
685.37792969	4.29411745
685.38201904	4.33333349
685.38201904	4.35294104
685.38604736	4.33333349
685.39013672	4.27450991
685.39428711	4.27450991
685.39428711	4.37254906
685.39837646	4.35294104
685.40246582	4.37254906
685.40246582	4.31372547
685.40649414	4.29411745
685.41064453	4.31372547
685.41473389	4.31372547
685.41473389	4.33333349
685.41870117	4.33333349
685.42285156	4.31372547
685.42694092	4.33333349
685.42694092	4.37254906
685.43109131	4.33333349
685.43518066	4.31372547
685.43927002	4.31372547
685.44335938	4.31372547
685.44744873	4.25490189
685.44744873	3.33333325
685.45159912	2.88235283
685.45581055	2.88235283
685.45977783	2.86274505
685.45977783	2.88235283
685.46386719	2.88235283
685.46801758	2.88235283
685.47216797	2.88235283
685.47216797	2.88235283
685.47613525	2.88235283
685.48022461	2.88235283
685.48425293	2.88235283
685.48846436	2.88235283
685.49261475	2.88235283
685.49261475	2.88235283
685.49670410	2.88235283
685.50073242	2.88235283
685.50488281	2.88235283
685.50488281	2.88235283
685.50885010	2.88235283
685.51293945	2.88235283
685.51715088	2.88235283
685.51715088	2.88235283
685.52124023	2.88235283
685.52532959	2.88235283
685.52929688	2.88235283
685.53344727	2.88235283
685.53765869	2.88235283
685.53765869	2.88235283
685.54180908	2.88235283
685.54571533	2.88235283
685.54986572	2.88235283
685.54986572	2.88235283
685.55401611	2.88235283
685.55816650	2.88235283
685.56231689	2.88235283
685.56231689	2.88235283
685.56628418	2.88235283
685.57037354	2.88235283
685.57452393	2.88235283
685.57867432	2.88235283
685.58276367	2.88235283
685.58276367	2.88235283
685.58673096	2.88235283
685.59088135	2.88235283
685.59503174	2.88235283
685.59503174	2.88235283
685.59899902	2.88235283
685.60314941	2.88235283
685.60723877	2.88235283
685.60723877	2.88235283
685.61132813	2.88235283
685.61547852	2.88235283
685.61950684	2.88235283
685.62371826	2.88235283
685.62774658	2.88235283
685.62774658	2.88235283
685.63183594	2.88235283
685.63586426	2.88235283
685.64001465	2.88235283
685.64001465	2.88235283
685.64416504	2.88235283
685.64825439	2.88235283
685.65234375	2.88235283
685.65234375	2.88235283
685.65637207	2.88235283
685.66052246	2.88235283
685.66455078	2.88235283
685.66864014	2.88235283
685.67291260	2.88235283
685.67291260	2.88235283
685.67687988	2.88235283
685.68096924	2.86274505
685.68518066	2.88235283
685.68518066	2.88235283
685.68914795	2.88235283
685.69323730	2.88235283
685.69738770	2.88235283
685.69738770	2.88235283
685.70153809	2.88235283
685.70562744	2.88235283
685.70971680	2.88235283
685.71368408	2.88235283
685.71777344	2.88235283
685.71777344	2.88235283
685.72204590	2.88235283
685.72589111	2.86274505
685.73004150	2.88235283
685.73004150	2.88235283
685.73419189	2.88235283
685.73834229	2.86274505
685.74249268	2.88235283
685.74249268	2.86274505
685.74645996	2.86274505
685.75073242	2.88235283
685.75073242	2.86274505
685.75476074	2.86274505
685.75885010	2.86274505
685.76300049	2.86274505
685.76300049	2.86274505
685.76696777	2.88235283
685.77111816	2.88235283
685.77514648	2.86274505
685.77514648	2.86274505
685.77923584	2.86274505
685.78326416	2.86274505
685.78747559	2.86274505
685.78747559	2.86274505
685.79162598	2.86274505
685.79571533	2.86274505
685.79571533	2.86274505
685.79974365	2.86274505
685.80389404	2.86274505
685.80798340	2.86274505
685.80798340	2.86274505
685.81207275	2.86274505
685.81610107	2.86274505
685.82025146	2.84313726
685.82025146	2.86274505
685.82440186	2.84313726
685.82861328	2.86274505
685.83264160	2.88235283
685.83264160	2.86274505
685.83679199	2.86274505
685.84075928	2.86274505
685.84075928	2.86274505
685.84484863	2.84313726
685.84912109	2.86274505
685.85314941	2.86274505
685.85314941	2.86274505
685.85711670	2.86274505
685.86120605	2.86274505
685.86541748	2.86274505
685.86541748	2.86274505
685.86938477	2.86274505
685.87353516	2.86274505
685.87780762	2.86274505
685.87780762	2.86274505
685.88177490	2.86274505
685.88586426	2.86274505
685.88586426	3.21568632
685.88995361	2.84313726
685.89404297	3.23529410
685.89813232	2.88235283
685.89813232	2.86274505
685.90222168	2.90196085
685.90625000	2.86274505
685.91033936	2.84313726
685.91033936	2.82352948
685.91448975	2.82352948
685.91857910	2.86274505
685.92279053	3.25490189
685.92675781	3.66666675
685.93090820	4.25490189
685.93090820	4.25490189
685.93499756	4.25490189
685.93920898	4.25490189
685.94317627	4.27450991
685.94317627	4.29411745
685.94726563	4.27450991
685.95141602	4.27450991
685.95556641	4.29411745
685.95556641	4.25490189
685.95947266	4.33333349
685.96368408	4.39215708
685.96771240	4.41176462
685.97198486	4.43137264
685.97595215	4.45098019
685.97595215	4.45098019
685.97998047	4.45098019
685.98413086	4.45098019
685.98828125	4.47058821
685.98828125	4.47058821
685.99243164	4.47058821
685.99639893	4.47058821
686.00054932	4.47058821
686.00054932	4.47058821
686.00463867	4.47058821
686.00872803	4.47058821
686.01287842	4.47058821
686.01690674	4.47058821
686.02105713	4.47058821
686.02105713	4.47058821
686.02508545	4.47058821
686.02923584	4.47058821
686.03326416	4.47058821
686.03326416	4.47058821
686.03741455	4.47058821
686.04144287	4.45098019
686.04559326	4.47058821
686.04559326	4.47058821
686.04974365	4.45098019
686.05371094	4.45098019
686.05786133	4.45098019
686.06195068	4.45098019
686.06610107	4.45098019
686.06610107	4.45098019
686.07006836	4.45098019
686.07415771	4.45098019
686.07830811	4.45098019
686.07830811	4.45098019
686.08239746	4.45098019
686.08642578	4.45098019
686.09063721	4.47058821
686.09063721	4.47058821
686.09472656	4.47058821
686.09881592	4.47058821
686.10284424	4.47058821
686.10693359	4.47058821
686.11108398	4.47058821
686.11108398	4.45098019
686.11523438	4.45098019
686.11932373	4.45098019
686.12335205	4.45098019
686.12335205	4.45098019
686.12750244	4.43137264
686.13159180	4.43137264
686.13574219	4.45098019
686.13574219	4.43137264
686.13970947	4.43137264
686.14385986	4.43137264
686.14801025	4.43137264
686.15216064	4.43137264
686.15631104	4.43137264
686.15631104	4.43137264
686.16021729	4.43137264
686.16430664	4.41176462
686.16845703	4.41176462
686.16845703	4.41176462
686.17260742	4.41176462
686.17663574	4.43137264
686.18072510	4.41176462
686.18072510	4.43137264
686.18481445	4.43137264
686.18896484	4.41176462
686.19311523	4.43137264
686.19708252	4.41176462
686.20123291	4.43137264
686.20123291	4.43137264
686.20538330	4.43137264
686.20947266	4.43137264
686.21350098	4.43137264
686.21350098	4.41176462
686.21777344	4.43137264
686.22174072	4.43137264
686.22583008	4.43137264
686.22583008	4.43137264
686.22985840	4.43137264
686.23400879	4.43137264
686.23400879	4.43137264
686.23809814	4.43137264
686.24218750	4.45098019
686.24633789	4.43137264
686.24633789	4.43137264
686.25036621	4.43137264
686.25451660	4.45098019
686.25866699	4.43137264
686.25866699	4.43137264
686.26281738	4.43137264
686.26678467	4.43137264
686.27087402	4.45098019
686.27087402	4.43137264
686.27502441	4.43137264
686.27911377	4.45098019
686.27911377	4.45098019
686.28314209	4.43137264
686.28723145	4.43137264
686.29138184	4.43137264
686.29138184	4.43137264
686.29541016	4.43137264
686.29962158	4.43137264
686.30371094	4.43137264
686.30371094	4.43137264
686.30773926	4.43137264
686.31182861	4.43137264
686.31591797	4.41176462
686.31591797	4.43137264
686.31994629	4.43137264
686.32409668	4.43137264
686.32409668	4.43137264
686.32818604	4.43137264
686.33233643	4.43137264
686.33642578	4.43137264
686.33642578	4.41176462
686.34045410	4.41176462
686.34478760	4.41176462
686.34881592	4.41176462
686.34881592	4.41176462
686.35284424	4.41176462
686.35681152	4.41176462
686.36096191	4.41176462
686.36096191	4.41176462
686.36505127	4.39215708
686.36920166	4.39215708
686.36920166	4.39215708
686.37322998	4.41176462
686.37731934	4.39215708
686.38146973	4.41176462
686.38146973	4.41176462
686.38555908	4.41176462
686.38970947	4.41176462
686.39379883	4.39215708
686.39379883	4.39215708
686.39788818	4.41176462
686.40191650	4.41176462
686.40612793	4.39215708
686.41009521	4.41176462
686.41412354	4.39215708
686.41412354	4.39215708
686.41833496	4.41176462
686.42248535	4.41176462
686.42657471	4.41176462
686.42657471	4.41176462
686.43072510	4.41176462
686.43469238	4.41176462
686.43884277	4.39215708
686.43884277	4.39215708
686.44299316	4.39215708
686.44696045	4.39215708
686.45111084	4.39215708
686.45526123	4.39215708
686.45935059	4.37254906
686.45935059	4.37254906
686.46331787	4.37254906
686.46765137	4.37254906
686.47174072	4.37254906
686.47174072	4.37254906
686.47564697	4.37254906
686.47979736	4.37254906
686.48382568	4.37254906
686.48382568	4.37254906
686.48803711	4.39215708
686.49206543	4.37254906
686.49621582	4.39215708
686.50018311	4.39215708
686.50433350	4.39215708
686.50433350	4.39215708
686.50848389	4.39215708
686.51263428	4.39215708
686.51690674	4.39215708
686.51690674	4.39215708
686.52075195	4.39215708
686.52478027	4.39215708
686.52899170	4.39215708
686.52899170	4.39215708
686.53308105	4.39215708
686.53717041	4.39215708
686.54119873	4.39215708
686.54528809	4.39215708
686.54949951	4.39215708
686.54949951	4.39215708
686.55346680	4.39215708
686.55767822	4.39215708
686.56164551	4.39215708
686.56164551	4.37254906
686.56585693	4.37254906
686.56994629	4.37254906
686.57391357	4.37254906
686.57391357	4.37254906
686.57806396	4.37254906
686.58215332	4.37254906
686.58630371	4.39215708
686.59027100	4.39215708
686.59442139	4.37254906
686.59442139	4.37254906
686.59857178	4.37254906
686.60272217	4.37254906
686.60687256	4.37254906
686.60687256	4.37254906
686.61077881	4.37254906
686.61499023	4.37254906
686.61907959	4.37254906
686.61907959	4.37254906
686.62322998	4.37254906
686.62731934	4.37254906
686.63134766	4.37254906
686.63543701	4.37254906
686.63958740	4.37254906
686.63958740	4.37254906
686.64373779	4.37254906
686.64770508	4.37254906
686.65185547	4.37254906
686.65185547	4.37254906
686.65588379	4.37254906
686.65991211	4.37254906
686.66406250	4.37254906
686.66406250	4.37254906
686.66821289	4.37254906
686.67236328	4.35294104
686.67645264	4.33333349
686.68041992	4.35294104
686.68469238	4.37254906
686.68469238	4.37254906
686.68872070	4.35294104
686.69287109	4.37254906
686.69696045	4.37254906
686.69696045	4.35294104
686.70092773	4.35294104
686.70507813	4.35294104
686.70910645	4.37254906
686.70910645	4.37254906
686.71331787	4.35294104
686.71728516	4.37254906
686.71728516	4.37254906
686.72143555	4.37254906
686.72558594	4.37254906
686.72973633	4.37254906
686.72973633	4.37254906
686.73370361	4.37254906
686.73785400	4.37254906
686.74194336	4.37254906
686.74194336	4.37254906
686.74615479	4.39215708
686.75030518	4.37254906
686.75427246	4.37254906
686.75427246	4.37254906
686.75836182	4.37254906
686.76251221	4.37254906
686.76251221	4.37254906
686.76666260	4.37254906
686.77075195	4.37254906
686.77471924	4.39215708
686.77471924	4.39215708
686.77880859	4.39215708
686.78302002	4.37254906
686.78710938	4.37254906
686.78710938	4.37254906
686.79107666	4.37254906
686.79522705	4.37254906
686.79943848	4.37254906
686.79943848	4.37254906
686.80346680	4.37254906
686.80749512	4.37254906
686.80749512	4.35294104
686.81176758	4.35294104
686.81573486	4.35294104
686.81982422	4.37254906
686.81982422	4.37254906
686.82385254	4.37254906
686.82800293	4.35294104
686.83209229	4.37254906
686.83209229	4.35294104
686.83618164	4.33333349
686.84033203	4.35294104
686.84442139	4.37254906
686.84442139	4.37254906
686.84844971	4.37254906
686.85260010	4.35294104
686.85260010	4.35294104
686.85668945	4.35294104
686.86071777	4.35294104
686.86486816	4.35294104
686.86486816	4.35294104
686.86895752	4.35294104
686.87316895	4.33333349
686.87725830	4.33333349
686.87725830	4.35294104
686.88122559	4.37254906
686.88537598	4.35294104
686.88952637	4.33333349
686.89361572	4.33333349
686.89776611	4.35294104
686.89776611	4.35294104
686.90185547	4.35294104
686.90588379	4.35294104
686.90991211	4.35294104
686.90991211	4.35294104
686.91394043	4.35294104
686.91809082	4.33333349
686.92224121	4.33333349
686.92224121	4.33333349
686.92626953	4.35294104
686.93041992	4.35294104
686.93444824	4.33333349
686.93859863	4.33333349
686.94268799	4.33333349
686.94268799	4.33333349
686.94683838	4.31372547
686.95080566	4.33333349
686.95495605	4.33333349
686.95495605	4.33333349
686.95904541	4.33333349
686.96325684	4.35294104
686.96734619	4.33333349
686.96734619	4.33333349
686.97137451	4.33333349
686.97546387	4.33333349
686.97955322	4.33333349
686.98370361	4.33333349
686.98767090	4.31372547
686.98767090	4.31372547
686.99182129	4.31372547
686.99597168	4.31372547
687.00006104	4.31372547
687.00006104	4.31372547
687.00408936	4.31372547
687.00817871	4.31372547
687.01232910	4.31372547
687.01232910	4.31372547
687.01647949	4.29411745
687.02056885	4.29411745
687.02478027	4.29411745
687.02874756	4.31372547
687.03283691	4.29411745
687.03283691	4.31372547
687.03692627	4.29411745
687.04089355	4.29411745
687.04504395	4.29411745
687.04504395	4.29411745
687.04913330	4.31372547
687.05328369	4.29411745
687.05737305	4.29411745
687.05737305	4.29411745
687.06146240	4.29411745
687.06573486	4.31372547
687.06970215	4.29411745
687.07391357	4.29411745
687.07781982	4.29411745
687.07781982	4.29411745
687.08190918	4.29411745
687.08605957	4.29411745
687.09014893	4.29411745
687.09014893	4.29411745
687.09417725	4.29411745
687.09832764	4.29411745
687.10241699	4.29411745
687.10241699	4.29411745
687.10656738	4.29411745
687.11071777	4.29411745
687.11468506	4.29411745
687.11877441	4.27450991
687.12292480	4.29411745
687.12292480	4.29411745
687.12707520	4.27450991
687.13110352	4.29411745
687.13525391	4.25490189
687.13525391	4.29411745
687.13940430	4.29411745
687.14349365	4.27450991
687.14764404	4.29411745
687.14764404	4.29411745
687.15173340	4.27450991
687.15576172	4.25490189
687.15979004	4.27450991
687.16394043	4.29411745
687.16796875	4.29411745
687.16796875	4.29411745
687.17211914	4.29411745
687.17626953	4.27450991
687.18029785	4.29411745
687.18029785	4.27450991
687.18444824	4.27450991
687.18853760	4.23529434
687.19274902	4.25490189
687.19274902	4.23529434
687.19677734	4.25490189
687.20086670	4.25490189
687.20086670	4.27450991
687.20489502	4.27450991
687.20898438	4.27450991
687.21313477	4.27450991
687.21313477	4.25490189
687.21728516	4.23529434
687.22119141	4.23529434
687.22534180	4.23529434
687.22534180	4.21568632
687.22949219	4.07843161
687.23358154	4.23529434
687.23773193	3.68627453
687.23773193	3.41176462
687.24169922	4.29411745
687.24584961	4.29411745
687.24584961	4.29411745
687.25000000	4.25490189
687.25408936	4.23529434
687.25811768	4.23529434
687.25811768	4.23529434
687.26226807	4.23529434
687.26641846	4.25490189
687.27044678	4.23529434
687.27044678	4.25490189
687.27447510	4.23529434
687.27874756	4.19607830
687.28283691	3.60784316
687.28283691	3.23529410
687.28686523	3.33333325
687.29095459	4.23529434
687.29095459	4.21568632
687.29504395	4.05882359
687.29907227	4.21568632
687.30322266	4.25490189
687.30322266	4.23529434
687.30731201	4.21568632
687.31140137	4.11764717
687.31549072	4.21568632
687.31549072	4.21568632
687.31964111	4.21568632
687.32379150	4.27450991
687.32788086	4.25490189
687.32788086	4.25490189
687.33190918	4.21568632
687.33599854	4.01960802
687.33599854	4.13725471
687.34014893	4.09803915
687.34429932	4.17647076
687.34820557	4.27450991
687.34820557	4.23529434
687.35229492	4.23529434
687.35650635	4.25490189
687.36065674	4.21568632
687.36065674	4.25490189
687.36468506	4.29411745
687.36877441	4.23529434
687.37286377	4.27450991
687.37701416	4.23529434
687.38116455	4.27450991
687.38116455	4.29411745
687.38513184	4.29411745
687.38928223	4.27450991
687.39337158	4.29411745
687.39337158	4.29411745
687.39758301	4.23529434
687.40148926	4.29411745
687.40576172	4.29411745
687.40576172	4.29411745
687.40972900	4.31372547
687.41381836	4.31372547
687.41796875	4.29411745
687.42199707	4.31372547
687.42608643	4.31372547
687.42608643	4.29411745
687.43017578	4.29411745
687.43426514	4.31372547
687.43829346	4.31372547
687.43829346	4.33333349
687.44238281	4.27450991
687.44653320	4.29411745
687.45062256	4.33333349
687.45062256	4.33333349
687.45465088	4.31372547
687.45880127	4.29411745
687.46289063	4.29411745
687.46704102	4.29411745
687.47119141	4.31372547
687.47119141	4.33333349
687.47515869	4.33333349
687.47930908	4.31372547
687.48339844	4.29411745
687.48339844	4.33333349
687.48754883	4.33333349
687.49163818	4.31372547
687.49566650	4.29411745
687.49566650	4.33333349
687.49975586	4.33333349
687.50396729	4.33333349
687.50793457	4.33333349
687.51208496	4.33333349
687.51617432	4.29411745
687.51617432	4.29411745
687.52032471	4.31372547
687.52441406	4.31372547
687.52844238	4.31372547
687.52844238	4.31372547
687.53259277	4.33333349
687.53668213	4.33333349
687.54083252	4.31372547
687.54083252	4.31372547
687.54479980	4.31372547
687.54895020	4.29411745
687.55310059	4.31372547
687.55725098	4.33333349
687.56140137	4.29411745
687.56140137	4.33333349
687.56536865	4.35294104
687.56945801	4.31372547
687.57366943	4.31372547
687.57366943	4.31372547
687.57775879	4.31372547
687.58172607	4.33333349
687.58587646	4.31372547
687.58587646	4.31372547
687.59002686	4.29411745
687.59411621	4.31372547
687.59808350	4.31372547
687.60217285	4.31372547
687.60638428	4.31372547
687.60638428	4.31372547
687.61047363	4.33333349
687.61437988	4.35294104
687.61871338	4.31372547
687.61871338	4.31372547
687.62274170	4.35294104
687.62683105	4.35294104
687.63092041	4.29411745
687.63092041	4.29411745
687.63494873	4.31372547
687.63909912	4.31372547
687.64318848	4.31372547
687.64739990	4.35294104
687.65148926	4.37254906
687.65148926	4.35294104
687.65551758	4.27450991
687.65960693	4.33333349
687.66369629	4.35294104
687.66369629	4.31372547
687.66796875	4.31372547
687.67187500	4.33333349
687.67596436	4.31372547
687.67596436	4.31372547
687.67999268	4.31372547
687.68420410	4.29411745
687.68420410	4.31372547
687.68823242	4.33333349
687.69238281	4.31372547
687.69635010	4.35294104
687.69635010	4.31372547
687.70050049	4.31372547
687.70465088	4.35294104
687.70867920	4.31372547
687.70867920	4.31372547
687.71282959	4.33333349
687.71697998	4.31372547
687.72106934	4.29411745
687.72106934	4.35294104
687.72509766	4.33333349
687.72924805	4.29411745
687.72924805	4.35294104
687.73333740	4.31372547
687.73742676	4.35294104
687.74157715	4.33333349
687.74157715	4.35294104
687.74572754	4.33333349
687.74969482	4.31372547
687.75384521	4.31372547
687.75384521	4.37254906
687.75793457	4.37254906
687.76190186	4.35294104
687.76611328	4.37254906
687.76611328	4.35294104
687.77020264	4.35294104
687.77435303	4.33333349
687.77435303	4.31372547
687.77838135	4.31372547
687.78247070	4.35294104
687.78668213	4.37254906
687.78668213	4.35294104
687.79071045	4.33333349
687.79473877	4.33333349
687.79876709	4.37254906
687.79876709	4.37254906
687.80297852	4.33333349
687.80706787	4.37254906
687.81121826	4.37254906
687.81121826	4.35294104
687.81518555	4.33333349
687.81927490	4.37254906
687.81927490	4.39215708
687.82342529	4.39215708
687.82757568	4.37254906
687.83166504	4.37254906
687.83166504	4.31372547
687.83575439	4.35294104
687.83984375	4.37254906
687.84399414	4.39215708
687.84399414	4.37254906
687.84808350	4.37254906
687.85205078	4.37254906
687.85614014	4.37254906
687.86022949	4.37254906
687.86444092	4.39215708
687.86444092	4.37254906
687.86834717	4.37254906
687.87274170	4.39215708
687.87670898	4.33333349
687.87670898	4.37254906
687.88079834	4.37254906
687.88482666	4.35294104
687.88897705	4.37254906
687.88897705	4.35294104
687.89306641	4.35294104
687.89715576	4.35294104
687.90130615	4.39215708
687.90527344	4.37254906
687.90942383	4.35294104
687.90942383	4.33333349
687.91351318	4.33333349
687.91766357	4.35294104
687.92181396	4.33333349
687.92181396	4.31372547
687.92584229	4.33333349
687.92993164	4.31372547
687.93408203	4.31372547
687.93408203	4.35294104
687.93823242	4.35294104
687.94219971	4.29411745
687.94635010	4.31372547
687.95043945	4.33333349
687.95458984	4.29411745
687.95458984	4.29411745
687.95874023	4.29411745
687.96270752	4.27450991
687.96685791	4.29411745
687.96685791	4.09803915
687.97094727	4.23529434
687.97503662	4.29411745
687.97912598	4.31372547
687.97912598	4.29411745
687.98321533	4.29411745
687.98736572	4.31372547
687.99145508	4.21568632
687.99548340	4.23529434
687.99975586	4.25490189
687.99975586	4.29411745
688.00372314	4.27450991
688.00787354	4.25490189
688.01202393	4.25490189
688.01202393	4.13725471
688.01599121	4.21568632
688.02008057	4.29411745
688.02423096	4.33333349
688.02423096	4.27450991
688.02838135	4.25490189
688.03234863	4.27450991
688.03643799	4.21568632
688.04058838	4.25490189
688.04467773	4.27450991
688.04467773	4.25490189
688.04870605	4.29411745
688.05279541	4.23529434
688.05700684	4.27450991
688.05700684	4.25490189
688.06115723	4.23529434
688.06524658	4.27450991
688.06921387	4.25490189
688.06921387	4.29411745
688.07336426	4.29411745
688.07751465	4.29411745
688.08160400	4.21568632
688.08581543	4.23529434
688.08978271	4.25490189
688.08978271	4.23529434
688.09381104	4.23529434
688.09796143	4.23529434
688.10211182	4.09803915
688.10211182	2.98039222
688.10614014	2.84313726
688.11016846	3.11764717
688.11431885	3.19607854
688.11431885	2.88235283
688.11846924	2.88235283
688.12249756	2.88235283
688.12664795	4.15686274
688.13073730	4.21568632
688.13488770	4.21568632
688.13488770	4.23529434
688.13885498	4.21568632
688.14300537	4.23529434
688.14709473	4.25490189
688.14709473	4.23529434
688.15124512	4.21568632
688.15521240	4.23529434
688.15930176	4.23529434
688.15930176	4.23529434
688.16345215	4.23529434
688.16760254	4.29411745
688.16760254	4.25490189
688.17169189	4.25490189
688.17565918	4.27450991
688.17987061	4.27450991
688.17987061	4.19607830
688.18402100	4.21568632
688.18811035	4.25490189
688.19226074	4.27450991
688.19226074	4.23529434
688.19628906	4.31372547
688.20037842	4.29411745
688.20452881	4.29411745
688.20452881	4.29411745
688.20861816	4.29411745
688.21276855	4.27450991
688.21276855	4.29411745
688.21667480	4.29411745
688.22082520	4.29411745
688.22491455	4.29411745
688.22491455	4.29411745
688.22900391	4.29411745
688.23309326	4.27450991
688.23718262	4.27450991
688.23718262	4.29411745
688.24133301	4.29411745
688.24530029	4.29411745
688.24945068	4.29411745
688.24945068	4.29411745
688.25360107	4.29411745
688.25769043	4.29411745
688.25769043	4.29411745
688.26184082	4.29411745
688.26580811	4.29411745
688.26989746	4.29411745
688.26989746	4.29411745
688.27410889	4.29411745
688.27819824	4.27450991
688.28228760	4.27450991
688.28228760	4.29411745
688.28637695	4.27450991
688.29046631	4.29411745
688.29455566	4.29411745
688.29455566	4.31372547
688.29870605	4.29411745
688.30285645	4.27450991
688.30285645	4.29411745
688.30682373	4.29411745
688.31097412	4.29411745
688.31512451	4.29411745
688.31512451	4.31372547
688.31909180	4.31372547
688.32324219	4.29411745
688.32739258	4.29411745
688.32739258	4.29411745
688.33148193	4.31372547
688.33563232	4.29411745
688.33972168	4.31372547
688.34368896	4.29411745
688.34777832	4.29411745
688.34777832	4.31372547
688.35205078	4.29411745
688.35601807	4.31372547
688.36004639	4.31372547
688.36004639	4.31372547
688.36413574	4.31372547
688.36828613	4.31372547
688.37249756	4.29411745
688.37249756	4.31372547
688.37640381	4.31372547
688.38055420	4.31372547
688.38470459	4.31372547
688.38867188	4.33333349
688.39276123	4.33333349
688.39276123	4.33333349
688.39697266	4.31372547
688.40106201	4.33333349
688.40521240	4.33333349
688.40521240	4.35294104
688.40924072	4.33333349
688.41333008	4.33333349
688.41741943	4.33333349
688.41741943	4.35294104
688.42156982	4.33333349
688.42565918	4.35294104
688.42968750	4.33333349
688.43383789	4.31372547
688.43792725	4.35294104
688.43792725	4.37254906
688.44207764	4.35294104
688.44604492	4.35294104
688.45019531	4.37254906
688.45019531	4.37254906
688.45434570	4.35294104
688.45849609	4.37254906
688.46258545	4.37254906
688.46258545	4.37254906
688.46667480	4.39215708
688.47070313	4.37254906
688.47491455	4.37254906
688.47894287	4.39215708
688.48291016	4.37254906
688.48291016	4.35294104
688.48706055	4.37254906
688.49121094	4.39215708
688.49530029	4.35294104
688.49530029	4.35294104
688.49926758	4.37254906
688.50341797	4.37254906
688.50756836	4.37254906
688.50756836	4.37254906
688.51165771	4.37254906
688.51586914	4.37254906
688.51983643	4.37254906
688.52398682	4.37254906
688.52807617	4.37254906
688.52807617	4.35294104
688.53216553	4.35294104
688.53631592	4.35294104
688.54034424	4.35294104
688.54034424	4.37254906
688.54437256	4.37254906
688.54852295	4.35294104
688.55267334	4.35294104
688.55267334	4.35294104
688.55670166	4.35294104
688.56085205	4.35294104
688.56494141	4.35294104
688.56890869	4.35294104
688.57305908	4.33333349
688.57305908	4.33333349
688.57720947	4.33333349
688.58135986	4.35294104
688.58551025	4.35294104
688.58551025	4.35294104
688.58947754	4.35294104
688.59368896	4.33333349
688.59771729	4.35294104
688.59771729	4.35294104
688.60198975	4.33333349
688.60595703	4.33333349
688.60992432	4.33333349
688.61401367	4.33333349
688.61816406	4.31372547
688.61816406	4.33333349
688.62237549	4.33333349
688.62628174	4.33333349
688.63043213	4.33333349
688.63043213	4.33333349
688.63458252	4.33333349
688.63873291	4.33333349
688.64288330	4.31372547
688.64288330	4.33333349
688.64685059	4.33333349
688.65093994	4.33333349
688.65093994	4.35294104
688.65509033	4.33333349
688.65924072	4.33333349
688.66320801	4.35294104
688.66320801	4.35294104
688.66729736	4.35294104
688.67144775	4.35294104
688.67559814	4.35294104
688.67559814	4.35294104
688.67974854	4.35294104
688.68371582	4.35294104
688.68786621	4.35294104
688.68786621	4.35294104
688.69201660	4.35294104
688.69610596	4.35294104
688.69610596	4.35294104
688.70013428	4.37254906
688.70422363	4.35294104
688.70837402	4.35294104
688.70837402	4.35294104
688.71246338	4.35294104
688.71643066	4.35294104
688.72076416	4.35294104
688.72076416	4.35294104
688.72467041	4.35294104
688.72882080	4.35294104
688.73291016	4.35294104
688.73291016	4.35294104
688.73699951	4.35294104
688.74114990	4.35294104
688.74114990	4.37254906
688.74530029	4.37254906
688.74926758	4.35294104
688.75335693	4.37254906
688.75335693	4.37254906
688.75750732	4.37254906
688.76159668	4.37254906
688.76574707	4.37254906
688.76574707	4.37254906
688.76983643	4.37254906
688.77386475	4.37254906
688.77795410	4.37254906
688.77795410	4.37254906
688.78204346	4.37254906
688.78625488	4.37254906
688.78625488	4.35294104
688.79016113	4.35294104
688.79431152	4.35294104
688.79846191	4.35294104
688.79846191	4.35294104
688.80261230	4.37254906
688.80676270	4.37254906
688.81072998	4.37254906
688.81072998	4.37254906
688.81488037	4.33333349
688.81896973	4.33333349
688.82299805	4.35294104
688.82708740	4.35294104
688.83123779	4.35294104
688.83123779	4.35294104
688.83532715	4.37254906
688.83929443	4.37254906
688.84344482	4.37254906
688.84344482	4.37254906
688.84759521	4.37254906
688.85168457	4.37254906
688.85583496	4.39215708
688.85583496	4.37254906
688.85986328	4.37254906
688.86401367	4.39215708
688.86810303	4.39215708
688.87219238	4.37254906
688.87628174	4.37254906
688.87628174	4.37254906
688.88037109	4.37254906
688.88452148	4.37254906
688.88861084	4.37254906
688.88861084	4.37254906
688.89276123	4.37254906
688.89666748	4.37254906
688.90081787	4.37254906
688.90081787	4.37254906
688.90490723	4.37254906
688.90911865	4.35294104
688.91308594	4.37254906
688.91717529	4.35294104
688.92132568	4.35294104
688.92132568	4.33333349
688.92547607	4.35294104
688.92950439	4.35294104
688.93377686	4.33333349
688.93377686	4.33333349
688.93774414	4.33333349
688.94189453	4.35294104
688.94598389	4.35294104
688.94598389	4.35294104
688.94995117	4.35294104
688.95410156	4.33333349
688.95825195	4.35294104
688.96234131	4.35294104
688.96643066	4.33333349
688.96643066	4.33333349
688.97045898	4.35294104
688.97454834	4.33333349
688.97869873	4.33333349
688.97869873	4.33333349
688.98278809	4.33333349
688.98687744	4.31372547
688.99096680	4.31372547
688.99096680	4.31372547
688.99511719	4.31372547
688.99926758	4.31372547
689.00317383	4.33333349
689.00732422	4.33333349
689.01147461	4.31372547
689.01147461	4.31372547
689.01562500	4.31372547
689.01971436	4.33333349
689.02368164	4.33333349
689.02368164	4.31372547
689.02777100	4.31372547
689.03198242	4.33333349
689.03607178	4.31372547
689.03607178	4.31372547
689.04003906	4.31372547
689.04418945	4.31372547
689.04833984	4.33333349
689.05242920	4.31372547
689.05657959	4.31372547
689.05657959	4.31372547
689.06072998	4.31372547
689.06469727	4.31372547
689.06878662	4.29411745
689.06878662	4.29411745
689.07293701	4.29411745
689.07690430	4.29411745
689.08105469	4.29411745
689.08105469	4.29411745
689.08508301	4.29411745
689.08929443	4.29411745
689.09326172	4.31372547
689.09741211	4.29411745
689.10156250	4.29411745
689.10156250	4.29411745
689.10571289	4.29411745
689.10968018	4.29411745
689.11376953	4.29411745
689.11376953	4.29411745
689.11791992	4.29411745
689.12207031	4.29411745
689.12622070	4.29411745
689.12622070	4.29411745
689.13018799	4.29411745
689.13427734	4.29411745
689.13427734	4.29411745
689.13842773	4.29411745
689.14257813	4.29411745
689.14660645	4.29411745
689.14660645	4.29411745
689.15069580	4.29411745
689.15478516	4.29411745
689.15893555	4.29411745
689.15893555	4.31372547
689.16296387	4.31372547
689.16699219	4.29411745
689.17120361	4.29411745
689.17120361	4.29411745
689.17529297	4.29411745
689.17944336	4.29411745
689.17944336	4.29411745
689.18341064	4.29411745
689.18768311	4.29411745
689.19171143	4.29411745
689.19171143	4.29411745
689.19580078	4.29411745
689.19976807	4.29411745
689.20404053	4.29411745
689.20404053	4.29411745
689.20806885	4.29411745
689.21215820	4.29411745
689.21630859	4.29411745
689.21630859	4.29411745
689.22039795	4.29411745
689.22442627	4.29411745
689.22442627	4.29411745
689.22857666	4.29411745
689.23272705	4.29411745
689.23681641	4.29411745
689.23681641	4.29411745
689.24078369	4.29411745
689.24493408	4.29411745
689.24908447	4.29411745
689.24908447	4.31372547
689.25305176	4.29411745
689.25720215	4.29411745
689.26129150	4.31372547
689.26129150	4.31372547
689.26550293	4.29411745
689.26959229	4.29411745
689.26959229	4.29411745
689.27368164	4.29411745
689.27770996	4.29411745
689.28186035	4.29411745
689.28186035	4.29411745
689.28588867	4.29411745
689.28991699	4.29411745
689.29400635	4.29411745
689.29400635	4.29411745
689.29815674	4.29411745
689.30224609	4.29411745
689.30645752	4.31372547
689.31042480	4.29411745
689.31469727	4.29411745
689.31469727	4.27450991
689.31860352	4.29411745
689.32281494	4.29411745
689.32696533	4.29411745
689.32696533	4.29411745
689.33093262	4.27450991
689.33508301	4.27450991
689.33917236	4.29411745
689.33917236	4.29411745
689.34313965	4.29411745
689.34735107	4.29411745
689.35144043	4.29411745
689.35546875	4.29411745
689.35968018	4.27450991
689.35968018	4.29411745
689.36364746	4.29411745
689.36779785	4.27450991
689.37194824	4.27450991
689.37194824	4.29411745
689.37603760	4.29411745
689.38006592	4.29411745
689.38415527	4.29411745
689.38415527	4.29411745
689.38836670	4.29411745
689.39245605	4.29411745
689.39660645	4.29411745
689.40069580	4.29411745
689.40466309	4.29411745
689.40466309	4.29411745
689.40881348	4.25490189
689.41296387	4.27450991
689.41699219	4.29411745
689.41699219	4.27450991
689.42102051	4.29411745
689.42517090	4.29411745
689.42932129	4.29411745
689.42932129	4.27450991
689.43347168	4.25490189
689.43743896	4.25490189
689.44171143	4.27450991
689.44567871	4.29411745
689.44982910	4.29411745
689.44982910	4.29411745
689.45385742	4.27450991
689.45800781	4.29411745
689.46203613	4.29411745
689.46203613	4.27450991
689.46618652	4.27450991
689.47021484	4.27450991
689.47424316	4.27450991
689.47424316	4.29411745
689.47833252	4.27450991
689.48254395	4.25490189
689.48669434	4.27450991
689.49066162	4.27450991
689.49481201	4.27450991
689.49481201	4.27450991
689.49890137	4.27450991
689.50305176	4.27450991
689.50720215	4.25490189
689.50720215	4.27450991
689.51116943	4.27450991
689.51538086	4.27450991
689.51947021	4.27450991
689.51947021	4.27450991
689.52337646	4.25490189
689.52764893	4.27450991
689.53167725	4.29411745
689.53582764	4.27450991
689.53985596	4.25490189
689.53985596	4.27450991
689.54388428	4.29411745
689.54803467	4.27450991
689.55212402	4.27450991
689.55212402	4.29411745
689.55633545	4.27450991
689.56030273	4.29411745
689.56439209	4.29411745
689.56439209	4.29411745
689.56854248	4.29411745
689.57269287	4.27450991
689.57678223	4.27450991
689.58087158	4.29411745
689.58496094	4.29411745
689.58496094	4.27450991
689.58905029	4.29411745
689.59313965	4.29411745
689.59729004	4.29411745
689.59729004	4.29411745
689.60119629	4.29411745
689.60546875	4.29411745
689.60955811	4.29411745
689.60955811	4.29411745
689.61364746	4.29411745
689.61767578	4.29411745
689.61767578	4.27450991
689.62182617	4.29411745
689.62591553	4.29411745
689.63006592	4.31372547
689.63006592	4.31372547
689.63403320	4.31372547
689.63818359	4.31372547
689.64227295	4.31372547
689.64227295	4.29411745
689.64636230	4.29411745
689.65039063	4.31372547
689.65460205	4.29411745
689.65460205	4.29411745
689.65863037	4.29411745
689.66278076	4.29411745
689.66278076	4.27450991
689.66680908	4.27450991
689.67089844	4.31372547
689.67504883	4.31372547
689.67504883	4.29411745
689.67913818	4.27450991
689.68328857	4.29411745
689.68743896	4.29411745
689.68743896	4.31372547
689.69146729	4.31372547
689.69561768	4.29411745
689.69970703	4.29411745
689.69970703	4.29411745
689.70373535	4.29411745
689.70788574	4.27450991
689.70788574	4.31372547
689.71191406	4.31372547
689.71606445	4.31372547
689.72021484	4.31372547
689.72021484	4.29411745
689.72418213	4.29411745
689.72827148	4.29411745
689.73242188	4.31372547
689.73242188	4.31372547
689.73663330	4.31372547
689.74072266	4.29411745
689.74468994	4.31372547
689.74468994	4.31372547
689.74884033	4.31372547
689.75292969	4.31372547
689.75292969	4.31372547
689.75714111	4.31372547
689.76110840	4.31372547
689.76525879	4.29411745
689.76525879	4.29411745
689.76934814	4.31372547
689.77343750	4.29411745
689.77752686	4.31372547
689.77752686	4.31372547
689.78173828	4.31372547
689.78564453	4.29411745
689.78979492	4.29411745
689.79382324	4.29411745
689.79797363	4.29411745
689.79797363	4.29411745
689.80212402	4.31372547
689.80627441	4.31372547
689.81036377	4.31372547
689.81036377	4.31372547
689.81433105	4.29411745
689.81848145	4.29411745
689.82263184	4.31372547
689.82263184	4.31372547
689.82672119	4.31372547
689.83074951	4.31372547
689.83483887	4.29411745
689.83898926	4.29411745
689.84313965	4.27450991
689.84313965	4.29411745
689.84704590	4.31372547
689.85119629	4.29411745
689.85528564	4.31372547
689.85528564	4.31372547
689.85949707	4.31372547
689.86358643	4.29411745
689.86767578	4.29411745
689.86767578	4.29411745
689.87170410	4.29411745
689.87579346	4.29411745
689.87994385	4.29411745
689.88397217	4.31372547
689.88806152	4.31372547
689.88806152	4.29411745
689.89221191	4.31372547
689.89636230	4.31372547
689.90045166	4.29411745
689.90045166	4.29411745
689.90447998	4.29411745
689.90869141	4.27450991
689.91265869	4.27450991
689.91265869	4.29411745
689.91680908	4.31372547
689.92083740	4.29411745
689.92480469	4.23529434
689.92901611	4.29411745
689.93316650	4.31372547
689.93316650	4.31372547
689.93719482	4.31372547
689.94128418	4.31372547
689.94543457	4.31372547
689.94543457	4.29411745
689.94946289	4.29411745
689.95367432	4.31372547
689.95758057	4.29411745
689.95758057	4.17647076
689.96179199	4.33333349
689.96594238	4.31372547
689.97003174	4.33333349
689.97406006	4.31372547
689.97814941	4.27450991
689.97814941	4.31372547
689.98229980	4.27450991
689.98638916	4.33333349
689.99053955	4.37254906
689.99053955	4.33333349
689.99468994	4.31372547
689.99871826	4.33333349
690.00280762	4.35294104
690.00280762	4.35294104
690.00689697	4.35294104
690.01110840	4.35294104
690.01507568	4.31372547
690.01922607	4.33333349
690.02331543	4.35294104
690.02331543	4.35294104
690.02728271	4.37254906
690.03149414	4.35294104
690.03564453	4.37254906
690.03564453	4.35294104
690.03967285	4.37254906
690.04376221	4.39215708
690.04779053	4.35294104
690.04779053	4.35294104
690.05187988	4.37254906
690.05609131	4.37254906
690.06018066	4.37254906
690.06414795	4.33333349
690.06829834	4.37254906
690.06829834	4.35294104
690.07244873	4.37254906
690.07659912	4.37254906
690.08074951	4.37254906
690.08074951	4.39215708
690.08465576	4.33333349
690.08880615	4.27450991
690.09295654	4.39215708
690.09295654	4.35294104
690.09704590	4.35294104
690.10107422	4.39215708
690.10107422	4.37254906
690.10516357	4.37254906
690.10931396	4.39215708
690.11340332	4.39215708
690.11340332	4.35294104
690.11743164	4.35294104
690.12170410	4.33333349
690.12567139	4.35294104
690.12567139	4.37254906
690.12982178	4.37254906
690.13397217	4.35294104
690.13793945	4.35294104
690.13793945	4.31372547
690.14208984	4.35294104
690.14624023	4.35294104
690.14624023	4.37254906
690.15032959	4.39215708
690.15435791	4.39215708
690.15844727	4.37254906
690.15844727	4.35294104
690.16253662	4.37254906
690.16668701	4.37254906
690.17083740	4.33333349
690.17083740	4.39215708
690.17480469	4.37254906
690.17889404	4.37254906
690.18304443	4.37254906
690.18304443	4.35294104
690.18719482	4.41176462
690.19134521	4.41176462
690.19134521	4.35294104
690.19531250	4.29411745
690.19946289	4.33333349
690.20355225	4.37254906
690.20355225	4.35294104
690.20776367	4.35294104
690.21173096	4.35294104
690.21588135	4.37254906
690.21588135	4.39215708
690.21997070	4.35294104
690.22406006	4.37254906
690.22802734	4.37254906
690.22802734	4.39215708
690.23223877	4.39215708
690.23632813	4.35294104
690.23632813	4.35294104
690.24041748	4.33333349
690.24444580	4.33333349
690.24871826	4.31372547
690.24871826	4.31372547
690.25280762	4.37254906
690.25683594	4.33333349
690.26098633	4.33333349
690.26098633	4.35294104
690.26495361	4.35294104
690.26910400	4.33333349
690.27319336	4.31372547
690.27734375	4.35294104
690.28143311	4.31372547
690.28143311	4.33333349
690.28540039	4.31372547
690.28955078	4.31372547
690.29370117	4.33333349
690.29370117	4.31372547
690.29766846	4.29411745
690.30175781	4.33333349
690.30590820	4.33333349
690.30590820	4.35294104
690.31005859	4.31372547
690.31420898	4.31372547
690.31823730	4.31372547
690.32238770	4.31372547
690.32647705	4.31372547
690.32647705	4.31372547
690.33062744	4.29411745
690.33471680	4.35294104
690.33874512	4.35294104
690.33874512	4.35294104
690.34283447	4.33333349
690.34692383	4.33333349
690.35101318	4.29411745
690.35101318	4.31372547
690.35510254	4.31372547
690.35919189	4.33333349
690.36328125	4.31372547
690.36743164	4.29411745
690.37158203	4.29411745
690.37158203	4.31372547
690.37573242	4.29411745
690.37969971	4.31372547
690.38385010	4.35294104
690.38385010	4.33333349
690.38793945	4.35294104
690.39196777	4.33333349
690.39605713	4.29411745
690.39605713	4.29411745
690.40020752	4.29411745
690.40429688	4.35294104
690.40826416	4.31372547
690.41241455	4.29411745
690.41674805	4.33333349
690.41674805	4.31372547
690.42071533	4.33333349
690.42468262	4.33333349
690.42883301	4.31372547
690.42883301	4.33333349
690.43298340	4.35294104
690.43707275	4.33333349
690.44116211	4.33333349
690.44116211	4.33333349
690.44512939	4.33333349
690.44927979	4.29411745
690.45343018	4.31372547
690.45751953	4.29411745
690.46166992	4.29411745
690.46166992	4.29411745
690.46569824	4.29411745
690.46978760	4.31372547
690.47393799	4.33333349
690.47393799	4.31372547
690.47790527	4.31372547
690.48205566	4.29411745
690.48614502	4.31372547
690.48614502	4.29411745
690.49035645	4.29411745
690.49450684	4.31372547
690.49847412	4.29411745
690.50274658	4.29411745
690.50671387	4.33333349
690.50671387	4.29411745
690.51086426	4.27450991
690.51483154	4.29411745
690.51898193	4.29411745
690.51898193	4.27450991
690.52307129	4.31372547
690.52722168	4.29411745
690.53131104	4.29411745
690.53131104	4.25490189
690.53521729	4.27450991
690.53948975	4.05882359
690.54357910	4.33333349
690.54766846	4.31372547
690.55157471	4.29411745
690.55157471	4.29411745
690.55578613	4.29411745
690.55993652	4.29411745
690.56402588	4.29411745
690.56402588	4.29411745
690.56805420	4.29411745
690.57214355	4.29411745
690.57629395	4.29411745
690.57629395	4.27450991
690.58044434	4.29411745
690.58459473	4.31372547
690.58459473	4.29411745
690.58874512	4.25490189
690.59265137	4.27450991
690.59674072	4.25490189
690.59674072	4.27450991
690.60095215	4.25490189
690.60498047	4.29411745
690.60900879	4.27450991
690.60900879	4.29411745
690.61309814	4.29411745
690.61724854	4.29411745
690.62145996	4.29411745
690.62145996	4.25490189
690.62542725	4.29411745
690.62969971	4.27450991
690.62969971	4.29411745
690.63366699	4.29411745
690.63781738	4.29411745
690.64178467	4.29411745
690.64178467	4.29411745
690.64593506	4.29411745
690.65008545	4.31372547
690.65417480	4.29411745
690.65417480	4.29411745
690.65814209	4.29411745
690.66229248	4.31372547
690.66644287	4.33333349
690.66644287	4.29411745
690.67047119	4.27450991
690.67462158	4.29411745
690.67462158	4.29411745
690.67864990	4.29411745
690.68280029	4.31372547
690.68688965	4.27450991
690.68688965	4.31372547
690.69104004	4.31372547
690.69500732	4.31372547
690.69915771	4.31372547
690.69915771	4.31372547
690.70324707	4.31372547
690.70745850	4.31372547
690.71160889	4.31372547
690.71160889	4.29411745
690.71569824	4.29411745
690.71966553	4.31372547
690.71966553	4.33333349
690.72381592	4.31372547
690.72796631	4.29411745
690.73181152	4.29411745
690.73181152	4.31372547
690.73602295	4.33333349
690.74011230	4.33333349
690.74426270	4.29411745
690.74426270	4.31372547
690.74829102	4.29411745
690.75238037	4.29411745
690.75665283	4.33333349
690.76068115	4.31372547
690.76477051	4.31372547
690.76477051	4.31372547
690.76885986	4.29411745
690.77301025	4.31372547
690.77703857	4.31372547
690.77703857	4.31372547
690.78118896	4.33333349
690.78521729	4.33333349
690.78930664	4.33333349
690.78930664	4.31372547
690.79339600	4.27450991
690.79748535	4.29411745
690.80163574	4.35294104
690.80566406	4.31372547
690.80975342	4.31372547
690.80975342	4.35294104
690.81390381	4.31372547
690.81805420	4.33333349
690.82220459	4.31372547
690.82220459	4.33333349
690.82617188	4.33333349
690.83032227	4.33333349
690.83441162	4.33333349
690.83441162	4.31372547
690.83850098	4.33333349
690.84265137	4.33333349
690.84667969	4.35294104
690.85076904	4.33333349
690.85485840	4.33333349
690.85485840	4.35294104
690.85888672	4.35294104
690.86303711	4.31372547
690.86712646	4.33333349
690.86712646	4.31372547
690.87127686	4.33333349
690.87524414	4.35294104
690.87933350	4.35294104
690.87933350	4.35294104
690.88354492	4.33333349
690.88763428	4.37254906
690.89184570	4.35294104
690.89581299	4.33333349
690.89996338	4.35294104
690.89996338	4.37254906
690.90405273	4.37254906
690.90814209	4.35294104
690.91217041	4.37254906
690.91217041	4.35294104
690.91632080	4.35294104
690.92041016	4.37254906
690.92449951	4.37254906
690.92449951	4.37254906
690.92871094	4.37254906
690.93267822	4.37254906
690.93682861	4.37254906
690.94097900	4.37254906
690.94512939	4.37254906
690.94512939	4.37254906
690.94909668	4.37254906
690.95318604	4.37254906
690.95733643	4.37254906
690.95733643	4.37254906
690.96148682	4.39215708
690.96545410	4.37254906
690.96966553	4.37254906
690.96966553	4.37254906
690.97363281	4.39215708
690.97772217	4.37254906
690.98175049	4.39215708
690.98590088	4.39215708
690.99005127	4.37254906
690.99005127	4.39215708
690.99414063	4.39215708
690.99829102	4.39215708
691.00225830	4.39215708
691.00225830	4.39215708
691.00640869	4.39215708
691.01049805	4.39215708
691.01464844	4.39215708
691.01464844	4.39215708
691.01861572	4.39215708
691.02276611	4.39215708
691.02685547	4.39215708
691.03106689	4.39215708
691.03509521	4.39215708
691.03509521	4.39215708
691.03912354	4.39215708
691.04327393	4.39215708
691.04736328	4.39215708
691.04736328	4.39215708
691.05151367	4.39215708
691.05566406	4.39215708
691.05963135	4.39215708
691.05963135	4.39215708
691.06384277	4.37254906
691.06799316	4.37254906
691.06799316	4.37254906
691.07196045	4.37254906
691.07604980	4.37254906
691.08020020	4.37254906
691.08020020	4.37254906
691.08435059	4.37254906
691.08843994	4.37254906
691.09240723	4.37254906
691.09240723	4.37254906
691.09667969	4.37254906
691.10070801	4.37254906
691.10479736	4.37254906
691.10479736	4.37254906
691.10876465	4.37254906
691.11291504	4.37254906
691.11291504	4.37254906
691.11712646	4.37254906
691.12121582	4.37254906
691.12536621	4.37254906
691.12536621	4.37254906
691.12933350	4.37254906
691.13348389	4.37254906
691.13757324	4.37254906
691.13757324	4.37254906
691.14172363	4.37254906
691.14575195	4.37254906
691.14978027	4.37254906
691.14978027	4.37254906
691.15393066	4.37254906
691.15802002	4.37254906
691.15802002	4.37254906
691.16210938	4.37254906
691.16613770	4.37254906
691.17028809	4.37254906
691.17028809	4.37254906
691.17443848	4.37254906
691.17858887	4.35294104
691.18273926	4.37254906
691.18273926	4.37254906
691.18670654	4.37254906
691.19085693	4.37254906
691.19494629	4.37254906
691.19494629	4.37254906
691.19897461	4.37254906
691.20300293	4.37254906
691.20300293	4.37254906
691.20715332	4.35294104
691.21136475	4.35294104
691.21539307	4.35294104
691.21539307	4.35294104
691.21942139	4.35294104
691.22357178	4.35294104
691.22766113	4.35294104
691.22766113	4.35294104
691.23181152	4.35294104
691.23577881	4.35294104
691.23992920	4.35294104
691.24407959	4.35294104
691.24822998	4.35294104
691.24822998	4.35294104
691.25219727	4.35294104
691.25634766	4.35294104
691.26043701	4.35294104
691.26043701	4.35294104
691.26458740	4.35294104
691.26873779	4.35294104
691.27276611	4.35294104
691.27276611	4.35294104
691.27679443	4.35294104
691.28088379	4.35294104
691.28509521	4.37254906
691.28906250	4.37254906
691.29315186	4.37254906
691.29315186	4.37254906
691.29730225	4.37254906
691.30145264	4.37254906
691.30560303	4.37254906
691.30560303	4.37254906
691.30969238	4.37254906
691.31372070	4.37254906
691.31787109	4.37254906
691.31787109	4.37254906
691.32196045	4.37254906
691.32592773	4.37254906
691.33007813	4.37254906
691.33422852	4.37254906
691.33831787	4.37254906
691.33831787	4.37254906
691.34228516	4.37254906
691.34643555	4.37254906
691.35064697	4.37254906
691.35064697	4.37254906
691.35467529	4.37254906
691.35876465	4.37254906
691.36273193	4.37254906
691.36273193	4.37254906
691.36688232	4.37254906
691.37109375	4.35294104
691.37518311	4.35294104
691.37915039	4.35294104
691.38323975	4.35294104
691.38323975	4.35294104
691.38739014	4.35294104
691.39154053	4.35294104
691.39556885	4.35294104
691.39556885	4.35294104
691.39965820	4.35294104
691.40374756	4.35294104
691.40789795	4.35294104
691.40789795	4.35294104
691.41204834	4.35294104
691.41601563	4.35294104
691.42016602	4.35294104
691.42425537	4.35294104
691.42840576	4.35294104
691.42840576	4.35294104
691.43237305	4.35294104
691.43664551	4.35294104
691.44061279	4.35294104
691.44061279	4.35294104
691.44476318	4.35294104
691.44885254	4.35294104
691.45288086	4.35294104
691.45288086	4.35294104
691.45697021	4.35294104
691.46112061	4.35294104
691.46520996	4.35294104
691.46936035	4.35294104
691.47338867	4.35294104
691.47338867	4.35294104
691.47753906	4.35294104
691.48162842	4.35294104
691.48571777	4.35294104
691.48571777	4.35294104
691.48974609	4.35294104
691.49389648	4.35294104
691.49804688	4.35294104
691.49804688	4.35294104
691.50213623	4.35294104
691.50616455	4.35294104
691.51025391	4.35294104
691.51434326	4.35294104
691.51843262	4.35294104
691.51843262	4.35294104
691.52264404	4.35294104
691.52655029	4.35294104
691.53076172	4.35294104
691.53076172	4.35294104
691.53491211	4.35294104
691.53894043	4.35294104
691.54302979	4.35294104
691.54302979	4.35294104
691.54718018	4.35294104
691.55126953	4.35294104
691.55126953	4.35294104
691.55541992	4.35294104
691.55938721	4.35294104
691.56365967	4.35294104
691.56365967	4.35294104
691.56762695	4.35294104
691.57183838	4.35294104
691.57598877	4.35294104
691.57598877	4.35294104
691.57995605	4.35294104
691.58410645	4.35294104
691.58819580	4.35294104
691.58819580	4.35294104
691.59234619	4.35294104
691.59631348	4.35294104
691.59631348	4.35294104
691.60040283	4.35294104
691.60449219	4.35294104
691.60870361	4.35294104
691.60870361	4.35294104
691.61267090	4.35294104
691.61676025	4.35294104
691.62097168	4.35294104
691.62097168	4.35294104
691.62506104	4.35294104
691.62921143	4.33333349
691.63317871	4.33333349
691.63317871	4.33333349
691.63732910	4.33333349
691.64147949	4.33333349
691.64147949	4.33333349
691.64556885	4.33333349
691.64971924	4.33333349
691.65368652	4.33333349
691.65368652	4.33333349
691.65783691	4.33333349
691.66192627	4.33333349
691.66601563	4.33333349
691.66601563	4.33333349
691.67010498	4.33333349
691.67413330	4.33333349
691.67828369	4.33333349
691.67828369	4.33333349
691.68249512	4.33333349
691.68658447	4.33333349
691.68658447	4.33333349
691.69073486	4.33333349
691.69470215	4.33333349
691.69885254	4.33333349
691.69885254	4.33333349
691.70281982	4.33333349
691.70690918	4.33333349
691.71105957	4.33333349
691.71105957	4.33333349
691.71520996	4.33333349
691.71936035	4.33333349
691.72326660	4.33333349
691.72741699	4.33333349
691.73156738	4.33333349
691.73156738	4.33333349
691.73565674	4.33333349
691.73962402	4.33333349
691.74377441	4.33333349
691.74377441	4.33333349
691.74792480	4.33333349
691.75207520	4.33333349
691.75622559	4.33333349
691.75622559	4.33333349
691.76019287	4.33333349
691.76434326	4.33333349
691.76843262	4.33333349
691.77258301	4.33333349
691.77667236	4.33333349
691.77667236	4.33333349
691.78070068	4.33333349
691.78479004	4.33333349
691.78894043	4.31372547
691.78894043	4.33333349
691.79290771	4.33333349
691.79705811	4.33333349
691.80120850	4.33333349
691.80120850	4.33333349
691.80535889	4.33333349
691.80944824	4.33333349
691.81341553	4.33333349
691.81756592	4.33333349
691.82171631	4.33333349
691.82171631	4.33333349
691.82580566	4.33333349
691.82983398	4.33333349
691.83392334	4.33333349
691.83392334	4.33333349
691.83807373	4.33333349
691.84216309	4.33333349
691.84631348	4.33333349
691.84631348	4.33333349
691.85028076	4.33333349
691.85443115	4.33333349
691.85852051	4.33333349
691.86267090	4.33333349
691.86663818	4.33333349
691.86663818	4.33333349
691.87078857	4.33333349
691.87487793	4.31372547
691.87908936	4.31372547
691.87908936	4.33333349
691.88299561	4.33333349
691.88714600	4.31372547
691.89135742	4.31372547
691.89135742	4.31372547
691.89544678	4.31372547
691.89953613	4.33333349
691.90368652	4.31372547
691.90765381	4.31372547
691.91174316	4.31372547
691.91174316	4.31372547
691.91589355	4.31372547
691.91992188	4.31372547
691.92401123	4.31372547
691.92401123	4.31372547
691.92816162	4.31372547
691.93225098	4.29411745
691.93640137	4.29411745
691.93640137	4.29411745
691.94036865	4.31372547
691.94464111	4.29411745
691.94866943	4.31372547
691.95275879	4.29411745
691.95678711	4.29411745
691.95678711	4.29411745
691.96087646	4.31372547
691.96496582	4.29411745
691.96917725	4.29411745
691.96917725	4.29411745
691.97308350	4.29411745
691.97723389	4.29411745
691.98138428	4.29411745
691.98138428	4.29411745
691.98547363	4.29411745
691.98968506	4.29411745
691.99365234	4.29411745
691.99780273	4.29411745
692.00183105	4.29411745
692.00183105	4.29411745
692.00604248	4.29411745
692.01000977	4.29411745
692.01409912	4.17647076
692.01409912	3.98039222
692.01831055	3.00000000
692.02239990	2.86274505
692.02655029	2.86274505
692.02655029	2.88235283
692.03063965	2.88235283
692.03466797	2.86274505
692.03466797	2.86274505
692.03881836	2.84313726
692.04290771	2.86274505
692.04687500	2.88235283
692.04687500	2.86274505
692.05096436	2.88235283
692.05511475	3.03921580
692.05926514	3.13725495
692.05926514	3.39215684
692.06329346	3.74509811
692.06738281	4.25490189
692.07153320	4.27450991
692.07153320	4.25490189
692.07568359	4.27450991
692.07977295	4.27450991
692.07977295	4.27450991
692.08380127	4.27450991
692.08801270	4.29411745
692.09204102	4.27450991
692.09204102	4.29411745
692.09613037	4.29411745
692.10015869	4.29411745
692.10430908	4.29411745
692.10430908	4.29411745
692.10839844	4.29411745
692.11242676	4.29411745
692.11663818	4.29411745
692.11663818	4.29411745
692.12060547	4.29411745
692.12475586	4.29411745
692.12475586	4.29411745
692.12890625	4.29411745
692.13305664	4.29411745
692.13696289	4.29411745
692.13696289	4.29411745
692.14111328	4.29411745
692.14532471	4.29411745
692.14941406	4.29411745
692.14941406	4.29411745
692.15344238	4.29411745
692.15759277	4.29411745
692.16162109	4.29411745
692.16162109	4.31372547
692.16583252	4.31372547
692.16992188	4.29411745
692.16992188	4.29411745
692.17382813	4.31372547
692.17797852	4.31372547
692.18212891	4.31372547
692.18212891	4.31372547
692.18627930	4.31372547
692.19024658	4.31372547
692.19439697	4.31372547
692.19439697	4.31372547
692.19848633	4.33333349
692.20257568	4.31372547
692.20678711	4.31372547
692.21081543	4.31372547
692.21496582	4.31372547
692.21496582	4.31372547
692.21905518	4.31372547
692.22314453	4.31372547
692.22717285	4.31372547
692.22717285	4.31372547
692.23120117	4.31372547
692.23535156	4.31372547
692.23950195	4.31372547
692.23950195	4.31372547
692.24365234	4.33333349
692.24761963	4.31372547
692.25170898	4.31372547
692.25592041	4.31372547
692.26000977	4.31372547
692.26000977	4.33333349
692.26397705	4.31372547
692.26818848	4.31372547
692.27227783	4.31372547
692.27227783	4.31372547
692.27648926	4.31372547
692.28039551	4.31372547
692.28466797	4.31372547
692.28466797	4.31372547
692.28869629	4.31372547
692.29266357	4.31372547
692.29675293	4.33333349
692.30084229	4.31372547
692.30505371	4.31372547
692.30505371	4.31372547
692.30914307	4.31372547
692.31311035	4.31372547
692.31726074	4.31372547
692.31726074	4.33333349
692.32141113	4.33333349
692.32550049	4.33333349
692.32965088	4.33333349
692.32965088	4.33333349
692.33367920	4.31372547
692.33782959	4.33333349
692.34191895	4.35294104
692.34600830	4.35294104
692.35015869	4.33333349
692.35015869	4.33333349
692.35412598	4.33333349
692.35821533	4.33333349
692.36236572	4.33333349
692.36236572	4.33333349
692.36651611	4.31372547
692.37066650	4.33333349
692.37463379	4.33333349
692.37463379	4.33333349
692.37872314	4.33333349
692.38293457	4.31372547
692.38690186	4.33333349
692.39099121	4.31372547
692.39520264	4.31372547
692.39520264	4.33333349
692.39929199	4.31372547
692.40344238	4.31372547
692.40740967	4.33333349
692.40740967	4.33333349
692.41143799	4.31372547
692.41558838	4.31372547
692.41973877	4.31372547
692.41973877	4.31372547
692.42370605	4.31372547
692.42785645	4.31372547
692.43200684	4.31372547
692.43609619	4.31372547
692.44024658	4.29411745
692.44024658	4.31372547
692.44421387	4.29411745
692.44842529	4.29411745
692.45245361	4.31372547
692.45245361	4.31372547
692.45660400	4.31372547
692.46057129	4.31372547
692.46466064	4.31372547
692.46466064	4.31372547
692.46887207	4.29411745
692.47296143	4.31372547
692.47296143	4.29411745
692.47698975	4.31372547
692.48114014	4.31372547
692.48516846	4.29411745
692.48516846	4.29411745
692.48944092	4.29411745
692.49340820	4.29411745
692.49761963	4.29411745
692.49761963	4.31372547
692.50164795	4.31372547
692.50579834	4.31372547
692.50988770	4.31372547
692.50988770	4.31372547
692.51385498	4.31372547
692.51806641	4.31372547
692.51806641	4.31372547
692.52215576	4.31372547
692.52630615	4.27450991
692.53039551	4.29411745
692.53039551	4.31372547
692.53436279	4.31372547
692.53857422	4.31372547
692.54266357	4.31372547
692.54266357	4.31372547
692.54675293	4.31372547
692.55078125	4.31372547
692.55487061	4.31372547
692.55487061	4.29411745
692.55902100	4.31372547
692.56311035	4.31372547
692.56311035	4.31372547
692.56713867	4.31372547
692.57128906	4.29411745
692.57537842	4.31372547
692.57537842	4.31372547
692.57958984	4.27450991
692.58367920	4.29411745
692.58770752	4.31372547
692.58770752	4.33333349
692.59179688	4.31372547
692.59588623	4.31372547
692.60003662	4.33333349
692.60003662	4.35294104
692.60406494	4.31372547
692.60803223	4.33333349
692.60803223	4.35294104
692.61224365	4.33333349
692.61639404	4.35294104
692.62048340	4.33333349
692.62048340	4.31372547
692.62463379	4.33333349
692.62860107	4.33333349
692.63275146	4.33333349
692.63275146	4.33333349
692.63684082	4.33333349
692.64086914	4.33333349
692.64508057	4.33333349
692.64508057	4.35294104
692.64923096	4.35294104
692.65325928	4.33333349
692.65325928	4.27450991
692.65728760	4.31372547
692.66143799	4.35294104
692.66564941	4.37254906
692.66564941	4.33333349
692.66961670	4.31372547
692.67376709	4.33333349
692.67773438	4.35294104
692.67773438	4.31372547
692.68188477	4.33333349
692.68597412	4.35294104
692.69012451	4.35294104
692.69415283	4.33333349
692.69824219	4.31372547
692.69824219	4.33333349
692.70245361	4.37254906
692.70654297	4.35294104
692.71069336	4.33333349
692.71069336	4.35294104
692.71466064	4.35294104
692.71875000	4.35294104
692.72290039	4.35294104
692.72290039	4.33333349
692.72705078	4.33333349
692.73095703	4.35294104
692.73510742	4.35294104
692.73925781	4.31372547
692.74340820	4.33333349
692.74340820	4.33333349
692.74737549	4.33333349
692.75164795	4.31372547
692.75561523	4.31372547
692.75561523	4.33333349
692.75976563	4.35294104
692.76373291	4.35294104
692.76794434	4.35294104
692.76794434	4.35294104
692.77209473	4.33333349
692.77612305	4.33333349
692.78027344	4.33333349
692.78424072	4.35294104
692.78839111	4.37254906
692.78839111	4.33333349
692.79241943	4.31372547
692.79663086	4.35294104
692.80078125	4.37254906
692.80078125	4.37254906
692.80474854	4.37254906
692.80889893	4.35294104
692.81298828	4.33333349
692.81298828	4.35294104
692.81701660	4.35294104
692.82110596	4.35294104
692.82525635	4.37254906
692.82940674	4.35294104
692.83349609	4.33333349
692.83349609	4.35294104
692.83770752	4.35294104
692.84167480	4.33333349
692.84576416	4.35294104
692.84576416	4.35294104
692.84991455	4.31372547
692.85394287	4.35294104
692.85803223	4.35294104
692.85803223	4.37254906
692.86212158	4.37254906
692.86627197	4.33333349
692.87042236	4.35294104
692.87445068	4.33333349
692.87872314	4.35294104
692.87872314	4.35294104
692.88269043	4.33333349
692.88677979	4.33333349
692.89093018	4.33333349
692.89093018	4.33333349
692.89489746	4.31372547
692.89904785	4.31372547
692.90319824	4.33333349
692.90319824	4.31372547
692.90728760	4.31372547
692.91125488	4.31372547
692.91546631	4.33333349
692.91955566	4.33333349
692.92364502	4.33333349
692.92364502	4.33333349
692.92767334	4.33333349
692.93182373	4.33333349
692.93591309	4.31372547
692.93591309	4.35294104
692.94006348	4.33333349
692.94421387	4.31372547
692.94818115	4.29411745
692.94818115	4.33333349
692.95233154	4.31372547
692.95642090	4.35294104
692.96057129	4.31372547
692.96466064	4.31372547
692.96856689	4.35294104
692.96856689	4.35294104
692.97277832	4.35294104
692.97692871	4.35294104
692.98101807	4.37254906
692.98101807	4.33333349
692.98504639	4.33333349
692.98919678	4.33333349
692.99334717	4.33333349
692.99334717	4.37254906
692.99731445	4.33333349
693.00146484	4.33333349
693.00146484	4.35294104
693.00561523	4.35294104
693.00970459	4.35294104
693.01379395	4.37254906
693.01379395	4.33333349
693.01782227	4.37254906
693.02191162	4.37254906
693.02600098	4.37254906
693.02600098	4.37254906
693.03015137	4.37254906
693.03411865	4.35294104
693.03833008	4.33333349
693.03833008	4.35294104
693.04241943	4.37254906
693.04650879	4.37254906
693.04650879	4.37254906
693.05065918	4.37254906
693.05468750	4.35294104
693.05877686	4.33333349
693.05877686	4.37254906
693.06292725	4.37254906
693.06707764	4.37254906
693.07122803	4.37254906
693.07122803	4.35294104
693.07519531	4.35294104
693.07946777	4.35294104
693.08343506	4.31372547
693.08343506	4.33333349
693.08752441	4.37254906
693.09167480	4.37254906
693.09167480	4.37254906
693.09564209	4.33333349
693.09979248	4.33333349
693.10394287	4.35294104
693.10394287	4.33333349
693.10784912	4.31372547
693.11199951	4.31372547
693.11614990	4.33333349
693.11614990	4.31372547
693.12030029	4.31372547
693.12426758	4.33333349
693.12835693	4.33333349
693.12835693	4.31372547
693.13250732	4.31372547
693.13659668	4.33333349
693.13659668	4.31372547
693.14074707	4.33333349
693.14471436	4.29411745
693.14886475	4.33333349
693.14886475	4.33333349
693.15301514	4.33333349
693.15716553	4.31372547
693.16125488	4.29411745
693.16125488	4.31372547
693.16528320	4.31372547
693.16937256	4.29411745
693.17352295	4.31372547
693.17767334	4.31372547
693.18170166	4.31372547
693.18170166	4.31372547
693.18579102	4.33333349
693.18994141	4.31372547
693.19409180	4.31372547
693.19409180	4.31372547
693.19805908	4.31372547
693.20214844	4.31372547
693.20629883	4.33333349
693.20629883	4.33333349
693.21044922	4.31372547
693.21453857	4.31372547
693.21862793	4.31372547
693.22265625	4.27450991
693.22680664	4.31372547
693.22680664	4.31372547
693.23089600	4.33333349
693.23486328	4.31372547
693.23901367	4.31372547
693.23901367	4.35294104
693.24316406	4.35294104
693.24731445	4.31372547
693.25146484	4.33333349
693.25146484	4.31372547
693.25549316	4.31372547
693.25958252	4.31372547
693.26367188	4.31372547
693.26770020	4.31372547
693.27178955	4.31372547
693.27178955	4.31372547
693.27593994	4.33333349
693.28002930	4.31372547
693.28411865	4.31372547
693.28411865	4.31372547
693.28820801	4.31372547
693.29223633	4.31372547
693.29638672	4.31372547
693.29638672	4.31372547
693.30053711	4.35294104
693.30462646	4.35294104
693.30859375	4.31372547
693.31274414	4.29411745
693.31689453	4.31372547
693.31689453	4.33333349
693.32104492	4.31372547
693.32501221	4.33333349
693.32916260	4.33333349
693.32916260	4.31372547
693.33331299	4.33333349
693.33746338	4.31372547
693.34149170	4.31372547
693.34149170	4.31372547
693.34564209	4.31372547
693.34967041	4.31372547
693.35375977	4.31372547
693.35784912	4.31372547
693.36187744	4.31372547
693.36187744	4.31372547
693.36602783	4.33333349
693.37011719	4.31372547
693.37426758	4.35294104
693.37426758	4.33333349
693.37823486	4.31372547
693.38232422	4.33333349
693.38653564	4.31372547
693.38653564	4.31372547
693.39062500	4.35294104
693.39477539	4.35294104
693.39880371	4.33333349
693.40289307	4.35294104
693.40698242	4.35294104
693.40698242	4.35294104
693.41113281	4.33333349
693.41516113	4.33333349
693.41925049	4.35294104
693.41925049	4.35294104
693.42333984	4.37254906
693.42749023	4.37254906
693.43164063	4.35294104
693.43164063	4.33333349
693.43560791	4.35294104
693.43975830	4.35294104
693.44390869	4.37254906
693.44787598	4.37254906
693.45196533	4.37254906
693.45196533	4.37254906
693.45617676	4.37254906
693.46026611	4.37254906
693.46441650	4.35294104
693.46441650	4.37254906
693.46838379	4.37254906
693.47259521	4.37254906
693.47668457	4.37254906
693.47668457	4.37254906
693.48065186	4.35294104
693.48480225	4.37254906
693.48480225	4.37254906
693.48883057	4.37254906
693.49298096	4.37254906
693.49713135	4.37254906
693.49713135	4.37254906
693.50115967	4.37254906
693.50524902	4.37254906
693.50933838	4.37254906
693.50933838	4.37254906
693.51348877	4.37254906
693.51763916	4.37254906
693.52178955	4.37254906
693.52178955	4.37254906
693.52581787	4.37254906
693.52990723	4.37254906
693.52990723	4.37254906
693.53399658	4.37254906
693.53808594	4.37254906
693.54205322	4.37254906
693.54205322	4.37254906
693.54620361	4.37254906
693.55029297	4.37254906
693.55450439	4.35294104
693.55450439	4.35294104
693.55865479	4.35294104
693.56262207	4.35294104
693.56677246	4.35294104
693.56677246	4.35294104
693.57086182	4.35294104
693.57501221	4.35294104
693.57501221	4.35294104
693.57897949	4.35294104
693.58319092	4.33333349
693.58734131	4.35294104
693.58734131	4.35294104
693.59136963	4.33333349
693.59539795	4.35294104
693.59960938	4.35294104
693.59960938	4.33333349
693.60369873	4.33333349
693.60778809	4.33333349
693.61181641	4.35294104
693.61181641	4.35294104
693.61584473	4.35294104
693.62005615	4.35294104
693.62005615	4.35294104
693.62420654	4.35294104
693.62817383	4.35294104
693.63232422	4.35294104
693.63232422	4.35294104
693.63641357	4.35294104
693.64056396	4.35294104
693.64465332	4.35294104
693.64465332	4.35294104
693.64868164	4.35294104
693.65277100	4.35294104
693.65686035	4.35294104
693.66101074	4.35294104
693.66516113	4.35294104
693.66516113	4.35294104
693.66912842	4.35294104
693.67321777	4.35294104
693.67742920	4.35294104
693.67742920	4.35294104
693.68157959	4.35294104
693.68566895	4.35294104
693.68969727	4.35294104
693.68969727	4.35294104
693.69378662	4.35294104
693.69793701	4.35294104
693.70190430	4.35294104
693.70605469	4.35294104
693.71020508	4.35294104
693.71020508	4.35294104
693.71423340	4.35294104
693.71826172	4.35294104
693.72235107	4.35294104
693.72235107	4.35294104
693.72656250	4.35294104
693.73065186	4.35294104
693.73474121	4.35294104
693.73474121	4.35294104
693.73883057	4.35294104
693.74285889	4.35294104
693.74707031	4.35294104
693.75115967	4.35294104
693.75537109	4.35294104
693.75537109	4.35294104
693.75927734	4.35294104
693.76342773	4.35294104
693.76751709	4.35294104
693.76751709	4.35294104
693.77172852	4.35294104
693.77569580	4.35294104
693.77972412	4.35294104
693.77972412	4.35294104
693.78387451	4.35294104
693.78802490	4.35294104
693.79205322	4.35294104
693.79614258	4.35294104
693.80023193	4.35294104
693.80023193	4.35294104
693.80444336	4.35294104
693.80841064	4.33333349
693.81268311	4.33333349
693.81268311	4.33333349
693.81671143	4.33333349
693.82080078	4.33333349
693.82495117	4.33333349
693.82495117	4.33333349
693.82891846	4.33333349
693.83300781	4.33333349
693.83715820	4.33333349
693.84124756	4.33333349
693.84539795	4.33333349
693.84539795	4.33333349
693.84942627	4.33333349
693.85351563	4.33333349
693.85760498	4.33333349
693.85760498	4.33333349
693.86175537	4.33333349
693.86578369	4.33333349
693.86993408	4.33333349
693.86993408	4.33333349
693.87408447	4.33333349
693.87817383	4.33333349
693.88220215	4.33333349
693.88623047	4.33333349
693.89044189	4.33333349
693.89044189	4.33333349
693.89453125	4.33333349
693.89868164	4.33333349
693.90264893	4.33333349
693.90264893	4.33333349
693.90673828	4.33333349
693.91088867	4.33333349
693.91503906	4.33333349
693.91503906	4.33333349
693.91900635	4.33333349
693.92309570	4.33333349
693.92309570	4.33333349
693.92730713	4.33333349
693.93145752	4.33333349
693.93554688	4.33333349
693.93554688	4.33333349
693.93969727	4.33333349
693.94366455	4.33333349
693.94781494	4.33333349
693.94781494	4.33333349
693.95172119	4.33333349
693.95587158	4.33333349
693.96008301	4.33333349
693.96008301	4.33333349
693.96411133	4.33333349
693.96826172	4.33333349
693.96826172	4.33333349
693.97229004	4.33333349
693.97637939	4.33333349
693.98065186	4.33333349
693.98065186	4.33333349
693.98461914	4.33333349
693.98864746	4.33333349
693.99279785	4.33333349
693.99279785	4.33333349
693.99694824	4.33333349
694.00103760	4.33333349
694.00518799	4.33333349
694.00518799	4.33333349
694.00915527	4.33333349
694.01330566	4.33333349
694.01330566	4.33333349
694.01739502	4.33333349
694.02160645	4.33333349
694.02563477	4.33333349
694.02563477	4.33333349
694.02960205	4.33333349
694.03381348	4.33333349
694.03790283	4.33333349
694.03790283	4.33333349
694.04187012	4.33333349
694.04602051	4.33333349
694.05010986	4.33333349
694.05010986	4.33333349
694.05426025	4.33333349
694.05834961	4.33333349
694.05834961	4.33333349
694.06237793	4.33333349
694.06665039	4.33333349
694.07061768	4.33333349
694.07061768	4.33333349
694.07476807	4.33333349
694.07879639	4.33333349
694.08294678	4.33333349
694.08294678	4.33333349
694.08703613	4.33333349
694.09112549	4.33333349
694.09527588	4.33333349
694.09527588	4.33333349
694.09930420	4.33333349
694.10339355	4.33333349
694.10339355	4.33333349
694.10748291	4.33333349
694.11157227	4.33333349
694.11572266	4.33333349
694.11572266	4.33333349
694.11975098	4.33333349
694.12390137	4.33333349
694.12799072	4.33333349
694.12799072	4.33333349
694.13201904	4.33333349
694.13610840	4.33333349
694.14025879	4.33333349
694.14440918	4.31372547
694.14855957	4.31372547
694.14855957	4.31372547
694.15264893	4.31372547
694.15661621	4.31372547
694.16082764	4.31372547
694.16082764	4.31372547
694.16485596	4.31372547
694.16882324	4.31372547
694.17297363	4.31372547
694.17297363	4.31372547
694.17712402	4.31372547
694.18127441	4.31372547
694.18536377	4.31372547
694.18939209	4.31372547
694.19366455	4.31372547
694.19366455	4.31372547
694.19763184	4.31372547
694.20178223	4.31372547
694.20593262	4.31372547
694.20593262	4.31372547
694.20989990	4.31372547
694.21398926	4.31372547
694.21813965	4.31372547
694.21813965	4.31372547
694.22216797	4.31372547
694.22625732	4.31372547
694.23028564	4.31372547
694.23449707	4.31372547
694.23864746	4.31372547
694.23864746	4.31372547
694.24261475	4.31372547
694.24676514	4.31372547
694.25085449	4.31372547
694.25085449	4.31372547
694.25500488	4.31372547
694.25897217	4.31372547
694.26312256	4.31372547
694.26312256	4.31372547
694.26727295	4.31372547
694.27142334	4.31372547
694.27551270	4.33333349
694.27960205	4.31372547
694.28363037	4.31372547
694.28363037	4.31372547
694.28778076	4.31372547
694.29174805	4.31372547
694.29595947	4.31372547
694.29595947	4.31372547
694.29998779	4.33333349
694.30413818	4.33333349
694.30822754	4.31372547
694.30822754	4.31372547
694.31225586	4.31372547
694.31634521	4.33333349
694.32061768	4.33333349
694.32464600	4.33333349
694.32879639	4.33333349
694.32879639	4.31372547
694.33276367	4.33333349
694.33697510	4.33333349
694.34100342	4.33333349
694.34100342	4.33333349
694.34509277	4.33333349
694.34906006	4.31372547
694.35321045	4.33333349
694.35321045	4.31372547
694.35736084	4.33333349
694.36151123	4.33333349
694.36560059	4.33333349
694.36962891	4.33333349
694.37371826	4.33333349
694.37371826	4.33333349
694.37786865	4.33333349
694.38201904	4.33333349
694.38610840	4.33333349
694.38610840	4.33333349
694.39019775	4.33333349
694.39422607	4.31372547
694.39837646	4.33333349
694.39837646	4.33333349
694.40234375	4.33333349
694.40661621	4.33333349
694.40661621	4.33333349
694.41058350	4.33333349
694.41467285	4.33333349
694.41888428	4.33333349
694.41888428	4.33333349
694.42285156	4.33333349
694.42700195	4.33333349
694.43109131	4.33333349
694.43109131	4.33333349
694.43518066	4.33333349
694.43927002	4.33333349
694.44335938	4.33333349
694.44335938	4.33333349
694.44750977	4.33333349
694.45166016	4.33333349
694.45166016	4.33333349
694.45574951	4.33333349
694.45977783	4.33333349
694.46386719	4.33333349
694.46386719	4.33333349
694.46801758	4.33333349
694.47210693	4.33333349
694.47613525	4.33333349
694.47613525	4.33333349
694.48022461	4.33333349
694.48437500	4.33333349
694.48852539	4.33333349
694.48852539	4.33333349
694.49261475	4.33333349
694.49658203	4.33333349
694.49658203	4.33333349
694.50073242	4.33333349
694.50488281	4.33333349
694.50897217	4.33333349
694.50897217	4.33333349
694.51293945	4.33333349
694.51708984	4.33333349
694.52117920	4.33333349
694.52117920	4.33333349
694.52532959	4.33333349
694.52929688	4.33333349
694.53356934	4.33333349
694.53356934	4.33333349
694.53765869	4.33333349
694.54174805	4.33333349
694.54174805	4.33333349
694.54571533	4.33333349
694.54986572	4.33333349
694.55395508	4.33333349
694.55395508	4.33333349
694.55810547	4.33333349
694.56231689	4.33333349
694.56640625	4.33333349
694.56640625	4.33333349
694.57043457	4.33333349
694.57452393	4.33333349
694.57867432	4.33333349
694.57867432	4.33333349
694.58264160	4.33333349
694.58673096	4.33333349
694.58673096	4.33333349
694.59088135	4.33333349
694.59497070	4.33333349
694.59918213	4.33333349
694.59918213	4.33333349
694.60314941	4.33333349
694.60723877	4.33333349
694.61145020	4.33333349
694.61145020	4.33333349
694.61553955	4.33333349
694.61962891	4.33333349
694.62365723	4.33333349
694.62780762	4.33333349
694.63189697	4.33333349
694.63189697	4.33333349
694.63592529	4.33333349
694.64001465	4.33333349
694.64416504	4.33333349
694.64416504	4.33333349
694.64825439	4.33333349
694.65234375	4.33333349
694.65649414	4.33333349
694.65649414	4.33333349
694.66070557	4.33333349
694.66461182	4.33333349
694.66870117	4.33333349
694.67279053	4.33333349
694.67694092	4.33333349
694.67694092	4.33333349
694.68103027	4.33333349
694.68511963	4.33333349
694.68933105	4.33333349
694.68933105	4.33333349
694.69329834	4.33333349
694.69744873	4.33333349
694.70153809	4.33333349
694.70153809	4.33333349
694.70568848	4.33333349
694.70965576	4.33333349
694.71374512	4.33333349
694.71783447	4.33333349
694.72204590	4.33333349
694.72204590	4.33333349
694.72601318	4.33333349
694.73010254	4.33333349
694.73425293	4.31372547
694.73425293	4.31372547
694.73840332	4.33333349
694.74255371	4.33333349
694.74670410	4.31372547
694.74670410	4.31372547
694.75067139	4.33333349
694.75482178	4.31372547
694.75891113	4.31372547
694.76293945	4.31372547
694.76696777	4.31372547
694.76696777	4.31372547
694.77124023	4.31372547
694.77526855	4.31372547
694.77935791	4.31372547
694.77935791	4.31372547
694.78338623	4.31372547
694.78765869	4.31372547
694.79162598	4.31372547
694.79162598	4.31372547
694.79571533	4.29411745
694.79974365	4.31372547
694.80389404	4.31372547
694.80810547	4.31372547
694.81219482	4.29411745
694.81219482	4.31372547
694.81616211	4.31372547
694.82025146	4.31372547
694.82440186	4.31372547
694.82440186	4.31372547
694.82855225	4.29411745
694.83264160	4.29411745
694.83660889	4.29411745
694.83660889	4.29411745
694.84075928	4.29411745
694.84490967	4.29411745
694.84899902	4.29411745
694.85302734	4.29411745
694.85711670	4.29411745
694.85711670	4.29411745
694.86120605	4.29411745
694.86535645	4.29411745
694.86944580	4.29411745
694.86944580	4.29411745
694.87359619	4.29411745
694.87762451	4.29411745
694.88171387	4.29411745
694.88171387	4.29411745
694.88580322	4.29411745
694.89001465	4.29411745
694.89001465	4.29411745
694.89398193	4.29411745
694.89813232	4.29411745
694.90222168	4.29411745
694.90222168	4.29411745
694.90631104	4.29411745
694.91033936	4.29411745
694.91461182	4.29411745
694.91461182	4.29411745
694.91851807	4.29411745
694.92279053	4.31372547
694.92675781	4.29411745
694.92675781	4.29411745
694.93084717	4.31372547
694.93499756	4.29411745
694.93499756	4.31372547
694.93914795	4.31372547
694.94311523	4.29411745
694.94720459	4.29411745
694.94720459	4.29411745
694.95141602	4.29411745
694.95556641	4.29411745
694.95965576	4.29411745
694.95965576	4.27450991
694.96362305	4.29411745
694.96771240	4.31372547
694.97192383	4.31372547
694.97192383	4.31372547
694.97601318	4.31372547
694.98004150	4.29411745
694.98004150	4.31372547
694.98406982	4.29411745
694.98828125	4.29411745
694.99237061	4.29411745
694.99237061	4.27450991
694.99633789	4.27450991
695.00061035	4.27450991
695.00463867	4.27450991
695.00463867	4.25490189
695.00872803	4.21568632
695.01287842	4.29411745
695.01696777	4.29411745
695.01696777	4.29411745
695.02105713	4.31372547
695.02508545	4.29411745
695.02508545	4.29411745
695.02923584	4.29411745
695.03326416	4.27450991
695.03735352	4.25490189
695.03735352	4.27450991
695.04144287	4.19607830
695.04559326	4.29411745
695.04974365	4.31372547
695.04974365	4.29411745
695.05377197	4.29411745
695.05786133	4.29411745
695.06195068	4.29411745
695.06195068	4.29411745
695.06610107	4.29411745
695.07019043	4.29411745
695.07019043	4.27450991
695.07427979	4.17647076
695.07836914	4.21568632
695.08251953	4.31372547
695.08251953	4.29411745
695.08660889	4.31372547
695.09063721	4.33333349
695.09478760	4.31372547
695.09478760	4.29411745
695.09887695	4.21568632
695.10302734	4.31372547
695.10693359	4.31372547
695.11114502	4.35294104
695.11523438	4.33333349
695.11523438	4.33333349
695.11938477	4.31372547
695.12335205	4.27450991
695.12762451	4.29411745
695.12762451	4.31372547
695.13159180	3.21568632
695.13574219	2.94117641
695.13989258	4.29411745
695.13989258	4.35294104
695.14392090	4.35294104
695.14801025	4.35294104
695.15209961	4.35294104
695.15625000	4.33333349
695.16027832	4.29411745
695.16027832	4.35294104
695.16430664	4.35294104
695.16851807	4.33333349
695.17266846	4.31372547
695.17266846	4.35294104
695.17663574	4.29411745
695.18072510	4.35294104
695.18487549	4.35294104
695.18487549	4.35294104
695.18902588	4.35294104
695.19311523	4.35294104
695.19714355	4.35294104
695.20129395	4.35294104
695.20544434	4.31372547
695.20544434	4.35294104
695.20953369	4.35294104
695.21362305	4.35294104
695.21765137	4.35294104
695.21765137	4.35294104
695.22174072	4.35294104
695.22583008	4.35294104
695.22998047	4.35294104
695.22998047	4.35294104
695.23400879	4.35294104
695.23815918	4.35294104
695.24230957	4.35294104
695.24639893	4.35294104
695.25054932	4.35294104
695.25054932	4.35294104
695.25469971	4.35294104
695.25866699	4.35294104
695.26275635	4.35294104
695.26275635	4.35294104
695.26678467	4.35294104
695.27087402	4.35294104
695.27496338	4.35294104
695.27496338	4.35294104
695.27917480	4.35294104
695.28326416	4.35294104
695.28723145	4.35294104
695.29132080	4.35294104
695.29553223	4.35294104
695.29553223	4.35294104
695.29968262	4.35294104
695.30364990	4.35294104
695.30773926	4.35294104
695.30773926	4.35294104
695.31188965	4.35294104
695.31604004	4.35294104
695.32012939	4.35294104
695.32012939	4.35294104
695.32415771	4.35294104
695.32824707	4.35294104
695.33239746	4.35294104
695.33648682	4.33333349
695.34051514	4.35294104
695.34051514	4.33333349
695.34460449	4.35294104
695.34863281	4.33333349
695.35284424	4.35294104
695.35284424	4.33333349
695.35687256	4.33333349
695.36096191	4.33333349
695.36511230	4.33333349
695.36511230	4.33333349
695.36920166	4.33333349
695.37335205	4.33333349
695.37731934	4.33333349
695.38146973	4.33333349
695.38555908	4.33333349
695.38555908	4.33333349
695.38970947	4.31372547
695.39367676	4.33333349
695.39782715	4.33333349
695.39782715	4.33333349
695.40191650	4.33333349
695.40612793	4.33333349
695.41021729	4.33333349
695.41021729	4.21568632
695.41424561	4.33333349
695.41833496	4.33333349
695.41833496	4.33333349
695.42254639	4.33333349
695.42663574	4.33333349
695.43060303	4.33333349
695.43060303	4.33333349
695.43475342	4.31372547
695.43890381	4.33333349
695.44305420	4.33333349
695.44305420	4.33333349
695.44702148	4.33333349
695.45117188	4.33333349
695.45526123	4.33333349
695.45526123	4.31372547
695.45941162	4.33333349
695.46350098	4.31372547
695.46350098	4.33333349
695.46759033	4.31372547
695.47161865	4.33333349
695.47576904	4.33333349
695.47576904	4.33333349
695.47985840	4.33333349
695.48382568	4.33333349
695.48803711	4.29411745
695.48803711	4.31372547
695.49218750	4.33333349
695.49627686	4.33333349
695.50042725	4.31372547
695.50042725	4.31372547
695.50439453	4.31372547
695.50866699	4.33333349
695.50866699	4.33333349
695.51269531	4.33333349
695.51678467	4.33333349
695.52087402	4.31372547
695.52087402	4.31372547
695.52484131	4.31372547
695.52899170	4.31372547
695.53308105	4.33333349
695.53308105	4.29411745
695.53717041	4.33333349
695.54119873	4.33333349
695.54534912	4.33333349
695.54534912	4.33333349
695.54949951	4.33333349
695.55358887	4.29411745
695.55358887	4.31372547
695.55755615	4.33333349
695.56176758	4.33333349
695.56585693	4.33333349
695.56585693	4.33333349
695.56994629	4.33333349
695.57397461	4.33333349
695.57812500	4.33333349
695.57812500	4.33333349
695.58227539	4.33333349
695.58636475	4.33333349
695.59045410	4.33333349
695.59460449	4.33333349
695.59863281	4.31372547
695.59863281	4.33333349
695.60278320	4.33333349
695.60687256	4.33333349
695.61083984	4.33333349
695.61083984	4.33333349
695.61499023	4.33333349
695.61907959	4.33333349
695.62322998	4.33333349
695.62322998	4.33333349
695.62725830	4.33333349
695.63134766	4.33333349
695.63543701	4.33333349
695.63964844	4.33333349
695.64379883	4.33333349
695.64379883	4.33333349
695.64776611	4.33333349
695.65185547	4.33333349
695.65594482	4.33333349
695.65594482	4.33333349
695.66015625	4.33333349
695.66412354	4.33333349
695.66815186	4.29411745
695.66815186	4.33333349
695.67236328	4.31372547
695.67645264	4.29411745
695.68060303	4.33333349
695.68463135	4.33333349
695.68872070	4.33333349
695.68872070	4.31372547
695.69287109	4.33333349
695.69696045	4.33333349
695.70104980	4.29411745
695.70104980	4.31372547
695.70513916	4.29411745
695.70928955	4.29411745
695.71337891	4.31372547
695.71337891	4.33333349
695.71734619	4.33333349
695.72167969	4.31372547
695.72558594	4.29411745
695.72961426	4.29411745
695.73382568	4.33333349
695.73382568	4.31372547
695.73785400	4.31372547
695.74194336	4.29411745
695.74609375	4.31372547
695.74609375	4.29411745
695.75024414	4.33333349
695.75421143	4.33333349
695.75830078	4.29411745
695.75830078	4.29411745
695.76251221	4.29411745
695.76666260	4.31372547
695.77069092	4.29411745
695.77471924	4.29411745
695.77886963	4.29411745
695.77886963	4.31372547
695.78302002	4.29411745
695.78710938	4.29411745
695.79101563	4.29411745
695.79101563	4.33333349
695.79522705	4.33333349
695.79937744	4.29411745
695.80346680	4.29411745
695.80346680	4.33333349
695.80761719	4.33333349
695.81158447	4.29411745
695.81573486	4.29411745
695.81982422	4.31372547
695.82403564	4.31372547
695.82403564	4.33333349
695.82800293	4.33333349
695.83215332	4.31372547
695.83624268	4.31372547
695.83624268	4.29411745
695.84033203	4.31372547
695.84442139	4.33333349
695.84851074	4.33333349
695.84851074	4.33333349
695.85253906	4.33333349
695.85668945	4.31372547
695.85668945	4.33333349
695.86071777	4.31372547
695.86480713	4.33333349
695.86895752	4.33333349
695.86895752	4.33333349
695.87310791	4.33333349
695.87719727	4.31372547
695.88122559	4.31372547
695.88122559	4.35294104
695.88531494	4.35294104
695.88952637	4.35294104
695.89367676	4.33333349
695.89367676	4.35294104
695.89764404	4.35294104
695.90167236	4.35294104
695.90167236	4.33333349
695.90582275	4.35294104
695.90997314	4.35294104
695.91400146	4.33333349
695.91400146	4.35294104
695.91809082	4.35294104
695.92218018	4.35294104
695.92633057	4.35294104
695.92633057	4.35294104
695.93048096	4.33333349
695.93463135	4.35294104
695.93859863	4.35294104
695.93859863	4.33333349
695.94268799	4.35294104
695.94683838	4.35294104
695.94683838	4.35294104
695.95086670	4.35294104
695.95501709	4.35294104
695.95916748	4.35294104
695.95916748	4.35294104
695.96325684	4.35294104
695.96734619	4.35294104
695.97137451	4.35294104
695.97137451	4.33333349
695.97558594	4.35294104
695.97961426	4.35294104
695.98370361	4.35294104
695.98370361	4.35294104
695.98773193	4.35294104
695.99188232	4.35294104
695.99188232	4.35294104
695.99597168	4.35294104
696.00012207	4.35294104
696.00421143	4.35294104
696.00421143	4.35294104
696.00823975	4.35294104
696.01239014	4.35294104
696.01654053	4.35294104
696.01654053	4.35294104
696.02062988	4.35294104
696.02459717	4.35294104
696.02874756	4.35294104
696.02874756	4.35294104
696.03289795	4.35294104
696.03698730	4.35294104
696.03698730	4.35294104
696.04095459	4.35294104
696.04510498	4.35294104
696.04925537	4.35294104
696.04925537	4.35294104
696.05334473	4.35294104
696.05755615	4.35294104
696.06176758	4.35294104
696.06176758	4.35294104
696.06567383	4.35294104
696.06970215	4.35294104
696.07403564	4.33333349
696.07788086	4.33333349
696.08203125	4.35294104
696.08203125	4.33333349
696.08612061	4.33333349
696.09020996	4.33333349
696.09436035	4.33333349
696.09436035	4.33333349
696.09838867	4.33333349
696.10247803	4.33333349
696.10662842	4.33333349
696.10662842	4.33333349
696.11077881	4.33333349
696.11474609	4.33333349
696.11889648	4.33333349
696.12304688	4.33333349
696.12713623	4.33333349
696.12713623	4.33333349
696.13116455	4.33333349
696.13525391	4.33333349
696.13940430	4.33333349
696.13940430	4.33333349
696.14349365	4.33333349
696.14764404	4.33333349
696.15161133	4.33333349
696.15161133	4.33333349
696.15576172	4.33333349
696.15985107	4.33333349
696.16400146	4.33333349
696.16796875	4.33333349
696.17211914	4.33333349
696.17211914	4.33333349
696.17626953	4.33333349
696.18041992	4.33333349
696.18450928	4.33333349
696.18450928	4.33333349
696.18872070	4.33333349
696.19262695	4.33333349
696.19677734	4.33333349
696.19677734	4.33333349
696.20086670	4.33333349
696.20495605	4.33333349
696.20898438	4.33333349
696.21307373	4.33333349
696.21728516	4.33333349
696.21728516	4.33333349
696.22125244	4.33333349
696.22534180	4.33333349
696.22961426	4.33333349
696.22961426	4.33333349
696.23364258	4.33333349
696.23785400	4.33333349
696.24176025	4.33333349
696.24176025	4.33333349
696.24591064	4.33333349
696.25006104	4.33333349
696.25408936	4.33333349
696.25811768	4.33333349
696.26226807	4.33333349
696.26226807	4.33333349
696.26641846	4.33333349
696.27050781	4.33333349
696.27459717	4.33333349
696.27459717	4.33333349
696.27862549	4.33333349
696.28277588	4.33333349
696.28686523	4.33333349
696.28686523	4.33333349
696.29101563	4.33333349
696.29498291	4.33333349
696.29907227	4.33333349
696.30322266	4.33333349
696.30731201	4.33333349
696.30731201	4.33333349
696.31134033	4.33333349
696.31561279	4.33333349
696.31958008	4.33333349
696.31958008	4.33333349
696.32373047	4.33333349
696.32769775	4.33333349
696.33184814	4.33333349
696.33184814	4.33333349
696.33605957	4.33333349
696.34014893	4.33333349
696.34014893	4.33333349
696.34429932	4.33333349
696.34826660	4.33333349
696.35235596	4.33333349
696.35235596	4.33333349
696.35650635	4.33333349
696.36059570	4.33333349
696.36468506	4.33333349
696.36468506	4.33333349
696.36871338	4.33333349
696.37292480	4.33333349
696.37701416	4.33333349
696.37701416	4.33333349
696.38116455	4.33333349
696.38513184	4.33333349
696.38513184	4.33333349
696.38928223	4.33333349
696.39343262	4.33333349
696.39752197	4.33333349
696.39752197	4.33333349
696.40173340	4.33333349
696.40563965	4.33333349
696.40966797	4.33333349
696.40966797	4.33333349
696.41381836	4.33333349
696.41790771	4.33333349
696.42193604	4.33333349
696.42193604	4.33333349
696.42602539	4.33333349
696.43017578	4.33333349
696.43017578	4.33333349
696.43432617	4.33333349
696.43835449	4.33333349
696.44262695	4.33333349
696.44262695	4.33333349
696.44659424	4.33333349
696.45074463	4.33333349
696.45483398	4.33333349
696.45483398	4.33333349
696.45880127	4.33333349
696.46301270	4.33333349
696.46716309	4.33333349
696.46716309	4.33333349
696.47131348	4.33333349
696.47528076	4.33333349
696.47528076	4.33333349
696.47937012	4.33333349
696.48352051	4.33333349
696.48760986	4.33333349
696.48760986	4.33333349
696.49157715	4.33333349
696.49578857	4.33333349
696.49987793	4.33333349
696.49987793	4.33333349
696.50396729	4.33333349
696.50799561	4.33333349
696.51208496	4.33333349
696.51208496	4.33333349
696.51623535	4.33333349
696.52032471	4.33333349
696.52032471	4.33333349
696.52447510	4.33333349
696.52862549	4.33333349
696.53259277	4.33333349
696.53259277	4.33333349
696.53668213	4.33333349
696.54089355	4.33333349
696.54504395	4.33333349
696.54504395	4.33333349
696.54895020	4.33333349
696.55310059	4.33333349
696.55725098	4.33333349
696.56140137	4.33333349
696.56542969	4.33333349
696.56542969	4.33333349
696.56964111	4.33333349
696.57354736	4.33333349
696.57775879	4.33333349
696.57775879	4.33333349
696.58172607	4.33333349
696.58581543	4.33333349
696.58996582	4.33333349
696.58996582	4.33333349
696.59411621	4.33333349
696.59820557	4.33333349
696.60229492	4.33333349
696.60638428	4.33333349
696.61041260	4.33333349
696.61041260	4.33333349
696.61456299	4.33333349
696.61859131	4.33333349
696.62274170	4.33333349
696.62274170	4.33333349
696.62683105	4.33333349
696.63085938	4.33333349
696.63507080	4.33333349
696.63507080	4.33333349
696.63909912	4.33333349
696.64318848	4.33333349
696.64733887	4.33333349
696.65148926	4.33333349
696.65563965	4.33333349
696.65563965	4.33333349
696.65960693	4.33333349
696.66375732	4.33333349
696.66790771	4.33333349
696.66790771	4.33333349
696.67187500	4.33333349
696.67596436	4.33333349
696.68011475	4.33333349
696.68011475	4.33333349
696.68426514	4.33333349
696.68829346	4.33333349
696.69226074	4.33333349
696.69647217	4.33333349
696.70062256	4.33333349
696.70062256	4.33333349
696.70477295	4.33333349
696.70874023	4.33333349
696.71282959	4.33333349
696.71282959	4.33333349
696.71697998	4.33333349
696.72113037	4.33333349
696.72528076	4.33333349
696.72528076	4.33333349
696.72924805	4.33333349
696.73333740	4.33333349
696.73742676	4.33333349
696.74151611	4.33333349
696.74566650	4.33333349
696.74566650	4.33333349
696.74963379	4.33333349
696.75378418	4.33333349
696.75793457	4.33333349
696.75793457	4.33333349
696.76196289	4.33333349
696.76611328	4.33333349
696.77020264	4.33333349
696.77020264	4.33333349
696.77435303	4.33333349
696.77844238	4.33333349
696.78259277	4.33333349
696.78662109	4.33333349
696.79077148	4.33333349
696.79077148	4.33333349
696.79486084	4.33333349
696.79882813	4.33333349
696.80297852	4.33333349
696.80297852	4.33333349
696.80712891	4.33333349
696.81109619	4.33333349
696.81530762	4.33333349
696.81530762	4.33333349
696.81933594	4.33333349
696.82360840	4.33333349
696.82360840	4.33333349
696.82757568	4.33333349
696.83172607	4.33333349
696.83569336	4.33333349
696.83569336	4.33333349
696.83984375	4.33333349
696.84399414	4.33333349
696.84808350	4.33333349
696.84808350	4.33333349
696.85211182	4.33333349
696.85626221	4.33333349
696.86035156	4.33333349
696.86035156	4.33333349
696.86444092	4.33333349
696.86853027	4.33333349
696.86853027	4.33333349
696.87249756	4.33333349
696.87670898	4.33333349
696.88085938	4.33333349
696.88085938	4.33333349
696.88500977	4.33333349
696.88897705	4.33333349
696.89306641	4.33333349
696.89306641	4.33333349
