451.27471924	4.27450991
451.27877808	4.25490189
451.28292847	4.25490189
451.28707886	4.27450991
451.28707886	4.27450991
451.29107666	4.29411745
451.29513550	4.27450991
451.29922485	4.25490189
451.29922485	4.21568632
451.30340576	4.25490189
451.30752563	4.27450991
451.31152344	4.29411745
451.31152344	4.29411745
451.31567383	4.27450991
451.31976318	4.27450991
451.32394409	4.25490189
451.32794189	4.29411745
451.33206177	4.31372547
451.33206177	4.31372547
451.33615112	4.27450991
451.34033203	4.27450991
451.34436035	4.27450991
451.34436035	4.29411745
451.34851074	4.29411745
451.35250854	4.29411745
451.35665894	4.29411745
451.35665894	4.27450991
451.36080933	4.27450991
451.36480713	4.27450991
451.36889648	4.29411745
451.37304688	4.29411745
451.37719727	4.27450991
451.37719727	4.27450991
451.38131714	4.27450991
451.38528442	4.27450991
451.38955688	4.27450991
451.38955688	4.25490189
451.39358521	4.21568632
451.39779663	3.98039222
451.40173340	2.88235283
451.40173340	2.86274505
451.40588379	3.72549009
451.40997314	4.33333349
451.41406250	4.33333349
451.41806030	4.29411745
451.42224121	4.31372547
451.42224121	4.29411745
451.42630005	4.27450991
451.43041992	4.23529434
451.43460083	4.25490189
451.43460083	4.31372547
451.43859863	4.31372547
451.44277954	4.27450991
451.44696045	4.27450991
451.44696045	4.29411745
451.45095825	4.31372547
451.45520020	4.29411745
451.45520020	4.13725471
451.45913696	3.25490189
451.46319580	2.88235283
451.46731567	2.94117641
451.46731567	2.88235283
451.47131348	2.86274505
451.47558594	3.37254906
451.47949219	4.39215708
451.47949219	4.39215708
451.48367310	4.37254906
451.48782349	4.31372547
451.49185181	4.31372547
451.49185181	4.29411745
451.49594116	4.29411745
451.50006104	4.31372547
451.50006104	4.37254906
451.50418091	4.37254906
451.50817871	4.35294104
451.51229858	4.33333349
451.51229858	4.31372547
451.51644897	4.29411745
451.52056885	4.27450991
451.52471924	4.33333349
451.52471924	4.35294104
451.52874756	4.29411745
451.53280640	4.27450991
451.53695679	4.29411745
451.53695679	4.25490189
451.54104614	4.17647076
451.54525757	4.11764717
451.54525757	4.27450991
451.54919434	4.33333349
451.55331421	4.39215708
451.55746460	4.31372547
451.55746460	4.11764717
451.56158447	2.88235283
451.56561279	2.90196085
451.56976318	3.07843137
451.56976318	4.37254906
451.57385254	4.37254906
451.57797241	4.29411745
451.58197021	4.21568632
451.58197021	4.15686274
451.58605957	4.23529434
451.59017944	4.25490189
451.59017944	4.33333349
451.59429932	4.37254906
451.59829712	4.35294104
451.60250854	4.31372547
451.60250854	4.25490189
451.60656738	4.09803915
451.61068726	4.29411745
451.61483765	4.27450991
451.61483765	4.33333349
451.61880493	4.37254906
451.62295532	4.31372547
451.62707520	4.23529434
451.63119507	4.25490189
451.63531494	4.33333349
451.63531494	4.31372547
451.63931274	4.37254906
451.64346313	4.33333349
451.64755249	4.33333349
451.64755249	4.35294104
451.65151978	4.29411745
451.65563965	3.86274505
451.65979004	2.86274505
451.65979004	3.31372547
451.66387939	4.33333349
451.66802979	4.35294104
451.67208862	4.43137264
451.67620850	4.37254906
451.68032837	4.37254906
451.68032837	4.33333349
451.68444824	4.31372547
451.68853760	4.31372547
451.69256592	4.29411745
451.69256592	4.31372547
451.69668579	4.29411745
451.70083618	4.31372547
451.70495605	4.19607830
451.70495605	4.33333349
451.70895386	4.31372547
451.71304321	2.88235283
451.71713257	2.88235283
451.72131348	3.15686274
451.72540283	4.41176462
451.72540283	4.43137264
451.72955322	4.45098019
451.73352051	4.43137264
451.73770142	4.33333349
451.73770142	3.19607854
451.74172974	2.88235283
451.74578857	3.94117641
451.74993896	4.43137264
451.74993896	4.37254906
451.75408936	4.37254906
451.75820923	4.31372547
451.76220703	4.23529434
451.76632690	4.03921556
451.77041626	2.88235283
451.77041626	2.88235283
451.77456665	3.25490189
451.77850342	4.39215708
451.78265381	4.39215708
451.78265381	4.29411745
451.78677368	4.39215708
451.79098511	4.37254906
451.79507446	4.29411745
451.79507446	2.88235283
451.79904175	2.86274505
451.80322266	2.86274505
451.80731201	2.86274505
451.81146240	4.31372547
451.81558228	4.19607830
451.81558228	2.88235283
451.81958008	2.86274505
451.82366943	3.21568632
451.82781982	2.86274505
451.82781982	2.86274505
451.83178711	4.29411745
451.83593750	4.41176462
451.83999634	4.35294104
451.83999634	4.23529434
451.84411621	4.31372547
451.84829712	4.33333349
451.85223389	4.25490189
451.85659790	3.01960778
451.86056519	3.23529410
451.86056519	2.86274505
451.86468506	2.86274505
451.86868286	3.54901958
451.87280273	4.35294104
451.87280273	4.23529434
451.87695313	4.31372547
451.88107300	4.39215708
451.88519287	4.27450991
451.88519287	4.11764717
451.88916016	4.35294104
451.89331055	4.45098019
451.89736938	2.86274505
451.90151978	2.86274505
451.90554810	3.45098042
451.90554810	4.47058821
451.90960693	4.43137264
451.91378784	4.33333349
451.91793823	4.45098019
451.91793823	4.45098019
451.92190552	4.35294104
451.92605591	3.92156863
451.93020630	4.45098019
451.93020630	4.45098019
451.93432617	4.41176462
451.93841553	4.43137264
451.93841553	4.41176462
451.94256592	4.43137264
451.94656372	4.47058821
451.95074463	4.45098019
451.95074463	2.86274505
451.95477295	2.84313726
451.95889282	2.84313726
451.96295166	4.47058821
451.96295166	4.45098019
451.96704102	4.37254906
451.97122192	4.43137264
451.97531128	4.45098019
451.97531128	4.45098019
451.97930908	4.35294104
451.98355103	4.43137264
451.98355103	4.47058821
451.98760986	4.45098019
451.99169922	4.35294104
451.99566650	4.39215708
451.99566650	4.45098019
451.99981689	4.45098019
452.00390625	4.43137264
452.00808716	4.43137264
452.00808716	4.45098019
452.01205444	4.47058821
452.01614380	4.23529434
452.02032471	2.86274505
452.02032471	3.72549009
452.02444458	4.49019623
452.02850342	4.47058821
452.02850342	4.29411745
452.03256226	4.41176462
452.03671265	4.43137264
452.04083252	4.39215708
452.04083252	4.41176462
452.04492188	4.41176462
452.04885864	4.45098019
452.05303955	4.35294104
452.05303955	4.43137264
452.05718994	4.39215708
452.06130981	4.41176462
452.06536865	2.84313726
452.06536865	4.39215708
452.06954956	4.47058821
452.07354736	4.47058821
452.07354736	4.33333349
452.07769775	4.27450991
452.08184814	4.43137264
452.08596802	4.47058821
452.08596802	4.47058821
452.08996582	2.86274505
452.09405518	4.37254906
452.09817505	4.47058821
452.09817505	4.37254906
452.10220337	4.45098019
452.10635376	4.45098019
452.11047363	2.84313726
452.11453247	4.41176462
452.11868286	4.31372547
452.11868286	2.86274505
452.12268066	3.13725495
452.12683105	4.47058821
452.13092041	4.25490189
452.13092041	2.88235283
452.13507080	4.43137264
452.13903809	3.31372547
452.14321899	4.37254906
452.14321899	4.43137264
452.14733887	2.86274505
452.15148926	2.86274505
452.15557861	4.43137264
452.15957642	3.07843137
452.16366577	2.86274505
452.16366577	4.41176462
452.16787720	2.88235283
452.17187500	4.45098019
452.17590332	4.41176462
452.17590332	2.86274505
452.18005371	2.86274505
452.18417358	4.45098019
452.18823242	4.25490189
452.18823242	2.86274505
452.19232178	2.82352948
452.19656372	4.43137264
452.20050049	4.31372547
452.20468140	4.35294104
452.20874023	2.86274505
452.20874023	2.84313726
452.21276855	4.35294104
452.21682739	4.33333349
452.22103882	2.86274505
452.22103882	2.86274505
452.22521973	2.82352948
452.22915649	2.86274505
452.23327637	2.86274505
452.23327637	2.86274505
452.23742676	4.41176462
452.24157715	4.31372547
452.24569702	2.86274505
452.24966431	2.86274505
452.25381470	3.13725495
452.25381470	4.43137264
452.25793457	2.84313726
452.26205444	2.84313726
452.26611328	2.82352948
452.26611328	2.84313726
452.27023315	2.86274505
452.27435303	2.84313726
452.27844238	4.21568632
452.27844238	4.15686274
452.28256226	2.84313726
452.28662109	3.86274505
452.29061890	2.82352948
452.29473877	2.86274505
452.29882813	2.86274505
452.29882813	2.84313726
452.30285645	4.43137264
452.30703735	3.25490189
452.31109619	3.11764717
452.31109619	2.86274505
452.31530762	2.92156863
452.31924438	2.86274505
452.32351685	3.03921580
452.32351685	4.43137264
452.32748413	2.84313726
452.33163452	2.84313726
452.33557129	2.82352948
452.33978271	4.15686274
452.34381104	2.86274505
452.34381104	2.86274505
452.34799194	3.29411769
452.35220337	2.84313726
452.35620117	4.41176462
452.35620117	2.86274505
452.36032104	2.82352948
452.36450195	4.37254906
452.36862183	3.72549009
452.36862183	2.86274505
452.37258911	3.62745094
452.37670898	4.47058821
452.38085938	2.86274505
452.38500977	2.86274505
452.38912964	4.35294104
452.38912964	4.33333349
452.39309692	4.09803915
452.39721680	2.86274505
452.40133667	2.84313726
452.40133667	4.39215708
452.40545654	2.86274505
452.40954590	2.84313726
452.41357422	4.39215708
452.41357422	4.35294104
452.41769409	2.86274505
452.42178345	4.47058821
452.42178345	4.39215708
452.42581177	4.21568632
452.42996216	2.86274505
452.43411255	2.84313726
452.43411255	4.41176462
452.43823242	4.33333349
452.44238281	4.41176462
452.44635010	4.21568632
452.44635010	2.86274505
452.45062256	2.86274505
452.45465088	3.98039222
452.45867920	4.21568632
452.45867920	2.86274505
452.46270752	4.45098019
452.46679688	4.35294104
452.46679688	2.86274505
452.47094727	3.00000000
452.47506714	4.43137264
452.47921753	4.39215708
452.47921753	4.39215708
452.48318481	2.86274505
452.48730469	2.84313726
452.49145508	4.39215708
452.49145508	4.37254906
452.49560547	2.86274505
452.49954224	4.35294104
452.50369263	4.33333349
452.50369263	4.21568632
452.50787354	2.84313726
452.51199341	3.11764717
452.51199341	4.33333349
452.51599121	4.25490189
452.52008057	4.33333349
452.52429199	3.72549009
452.52429199	2.84313726
452.52832031	2.82352948
452.53240967	2.86274505
452.53649902	3.09803915
452.53649902	4.27450991
452.54061890	4.23529434
452.54467773	4.17647076
452.54879761	2.86274505
452.54879761	2.82352948
452.55279541	4.37254906
452.55700684	4.31372547
452.55700684	4.01960802
452.56109619	2.84313726
452.56524658	2.86274505
452.56936646	2.84313726
452.56936646	2.86274505
452.57330322	2.86274505
452.57748413	4.13725471
452.58160400	4.15686274
452.58160400	4.17647076
452.58575439	2.84313726
452.58972168	2.84313726
452.59381104	2.86274505
452.59793091	4.25490189
452.60208130	4.33333349
452.60208130	4.25490189
452.60607910	4.21568632
452.61016846	4.25490189
452.61428833	4.29411745
452.61428833	4.33333349
452.61843872	4.29411745
452.62255859	4.23529434
452.62658691	4.27450991
452.62658691	3.60784316
452.63067627	4.37254906
452.63479614	4.27450991
452.63888550	4.39215708
452.64288330	4.33333349
452.64703369	4.33333349
452.64703369	4.31372547
452.65121460	4.29411745
452.65530396	4.41176462
452.65942383	4.39215708
452.65942383	4.27450991
452.66357422	4.31372547
452.66754150	4.35294104
452.67166138	4.35294104
452.67166138	4.39215708
452.67581177	4.33333349
452.67977905	4.37254906
452.68389893	4.39215708
452.68798828	4.41176462
452.69219971	4.15686274
452.69219971	4.41176462
452.69616699	4.45098019
452.70028687	4.29411745
452.70449829	4.41176462
452.70449829	4.31372547
452.70861816	4.35294104
452.71267700	4.43137264
452.71667480	4.39215708
452.71667480	4.41176462
452.72079468	4.39215708
452.72497559	4.29411745
452.72906494	4.41176462
452.73306274	4.37254906
452.73718262	4.37254906
452.73718262	4.39215708
452.74127197	4.39215708
452.74542236	4.33333349
452.74957275	4.21568632
452.74957275	4.43137264
452.75350952	4.37254906
452.75769043	4.43137264
452.76177979	4.35294104
452.76177979	4.35294104
452.76586914	4.29411745
452.76998901	4.37254906
452.77416992	4.29411745
452.77819824	4.11764717
452.78228760	3.74509811
452.78228760	4.41176462
452.78634644	4.33333349
452.79058838	4.33333349
452.79452515	4.35294104
452.79452515	4.41176462
452.79861450	4.35294104
452.80279541	4.25490189
452.80679321	2.84313726
452.80679321	4.41176462
452.81088257	4.39215708
452.81512451	4.39215708
452.81912231	4.37254906
452.82312012	4.35294104
452.82727051	4.31372547
452.82727051	4.33333349
452.83132935	4.35294104
452.83551025	4.37254906
452.83959961	4.31372547
452.83959961	2.82352948
452.84365845	4.39215708
452.84777832	4.31372547
452.85192871	4.35294104
452.85192871	4.23529434
452.85604858	4.41176462
452.86004639	4.39215708
452.86416626	4.33333349
452.86828613	4.31372547
452.87240601	3.66666675
452.87240601	2.80392146
452.87655640	4.39215708
452.88055420	4.35294104
452.88467407	4.35294104
452.88467407	4.29411745
452.88879395	4.31372547
452.89285278	4.35294104
452.89694214	4.35294104
452.89694214	4.33333349
452.90109253	4.25490189
452.90521240	4.21568632
452.90521240	4.33333349
452.90930176	4.31372547
452.91329956	4.35294104
452.91760254	2.86274505
452.91760254	4.43137264
452.92147827	4.43137264
452.92565918	3.03921580
452.92980957	2.84313726
452.92980957	3.58823538
452.93377686	4.35294104
452.93795776	4.35294104
452.94204712	4.29411745
452.94204712	4.11764717
452.94616699	2.84313726
452.95016479	2.80392146
452.95016479	4.37254906
452.95434570	4.33333349
452.95846558	4.31372547
452.96261597	4.27450991
452.96261597	4.25490189
452.96658325	4.27450991
452.97067261	4.31372547
452.97479248	4.33333349
452.97479248	4.29411745
452.97888184	4.17647076
452.98281860	4.27450991
452.98699951	3.92156863
452.98699951	2.84313726
452.99118042	2.86274505
452.99533081	2.86274505
452.99533081	3.00000000
452.99942017	4.45098019
453.00357056	4.39215708
453.00753784	4.29411745
453.00753784	4.29411745
453.01165771	4.35294104
453.01580811	4.31372547
453.01995850	4.33333349
453.01995850	4.25490189
453.02398682	4.21568632
453.02807617	4.29411745
453.03219604	4.29411745
453.03219604	4.31372547
453.03628540	4.31372547
453.04025269	4.31372547
453.04025269	4.29411745
453.04452515	4.27450991
453.04852295	4.25490189
453.05267334	4.27450991
453.05267334	4.05882359
453.05667114	2.84313726
453.06079102	3.96078420
453.06491089	4.33333349
453.06491089	4.27450991
453.06896973	4.21568632
453.07315063	2.84313726
453.07717896	4.41176462
453.08126831	4.35294104
453.08538818	4.17647076
453.08538818	4.21568632
453.08953857	4.27450991
453.09344482	4.17647076
453.09765625	3.84313726
453.09765625	4.27450991
453.10174561	4.29411745
453.10592651	4.29411745
453.11004639	4.33333349
453.11004639	4.35294104
453.11401367	4.35294104
453.11816406	4.31372547
453.12225342	4.25490189
453.12643433	4.27450991
453.13061523	3.94117641
453.13061523	2.84313726
453.13461304	2.96078420
453.13873291	4.33333349
453.14285278	4.27450991
453.14285278	4.33333349
453.14685059	4.31372547
453.15100098	3.47058821
453.15509033	2.84313726
453.15509033	4.25490189
453.15917969	4.35294104
453.16329956	4.31372547
453.16732788	4.27450991
453.17156982	2.88235283
453.17553711	2.86274505
453.17553711	4.39215708
453.17965698	4.39215708
453.18371582	4.29411745
453.18783569	4.27450991
453.18783569	4.25490189
453.19201660	4.27450991
453.19610596	4.27450991
453.20022583	4.25490189
453.20022583	4.05882359
453.20419312	2.88235283
453.20834351	2.86274505
453.21243286	4.29411745
453.21658325	4.23529434
453.22055054	4.33333349
453.22055054	4.33333349
453.22467041	4.23529434
453.22879028	2.86274505
453.23297119	2.84313726
453.23297119	3.27450991
453.23690796	4.29411745
453.24105835	4.27450991
453.24520874	4.31372547
453.24520874	4.33333349
453.24935913	4.31372547
453.25347900	4.27450991
453.25759888	4.33333349
453.26159668	4.23529434
453.26571655	2.86274505
453.26571655	2.94117641
453.26983643	4.33333349
453.27380371	4.33333349
453.27795410	4.29411745
453.27795410	4.31372547
453.28207397	4.33333349
453.28616333	4.33333349
453.29028320	4.29411745
453.29028320	4.27450991
453.29434204	4.31372547
453.29852295	4.31372547
453.30252075	4.27450991
453.30670166	4.31372547
453.31072998	4.31372547
453.31072998	4.31372547
453.31484985	4.33333349
453.31896973	4.31372547
453.32305908	4.27450991
453.32305908	4.25490189
453.32708740	4.25490189
453.33120728	4.19607830
453.33532715	4.25490189
453.33532715	4.25490189
453.33941650	4.19607830
453.34356689	2.88235283
453.34753418	3.17647052
453.35171509	4.39215708
453.35583496	4.37254906
453.35583496	4.33333349
453.35992432	4.29411745
453.36392212	4.25490189
453.36807251	3.39215684
453.36807251	2.88235283
453.37234497	3.45098042
453.37631226	4.39215708
453.38043213	4.37254906
453.38043213	4.33333349
453.38455200	4.31372547
453.38848877	4.29411745
453.38848877	4.33333349
453.39263916	4.31372547
453.39678955	4.31372547
453.40072632	4.29411745
453.40072632	4.27450991
453.40484619	4.25490189
453.40902710	4.25490189
453.41308594	4.25490189
453.41308594	3.92156863
453.41714478	2.86274505
453.42129517	2.86274505
453.42544556	3.01960778
453.42544556	2.88235283
453.42956543	2.88235283
453.43368530	2.86274505
453.43368530	3.70588231
453.43765259	4.39215708
453.44180298	4.33333349
453.44592285	4.29411745
453.44592285	4.31372547
453.45004272	4.29411745
453.45404053	4.29411745
453.45822144	4.25490189
453.45822144	4.21568632
453.46234131	4.23529434
453.46646118	4.29411745
453.47055054	4.29411745
453.47055054	4.31372547
453.47454834	4.31372547
453.47869873	4.29411745
453.47869873	4.27450991
453.48281860	4.25490189
453.48690796	4.23529434
453.49093628	4.23529434
453.49093628	4.29411745
453.49505615	4.25490189
453.49914551	2.88235283
453.50320435	2.88235283
453.50320435	2.86274505
453.50729370	4.33333349
453.51153564	4.37254906
453.51553345	4.31372547
453.51553345	4.25490189
453.51971436	4.27450991
453.52383423	4.29411745
453.52383423	4.27450991
453.52783203	4.25490189
453.53195190	4.25490189
453.53604126	4.17647076
453.53604126	4.17647076
453.54016113	4.25490189
453.54421997	4.27450991
453.54818726	4.27450991
453.54818726	4.31372547
453.55236816	4.31372547
453.55657959	4.29411745
453.56066895	4.25490189
453.56466675	4.15686274
453.56878662	4.19607830
453.56878662	3.64705873
453.57290649	2.86274505
453.57702637	2.84313726
453.58117676	2.88235283
453.58117676	2.86274505
453.58517456	2.84313726
453.58935547	2.86274505
453.59344482	2.88235283
453.59344482	2.86274505
453.59753418	2.84313726
453.60153198	4.39215708
453.60568237	4.33333349
453.60971069	4.33333349
453.61386108	4.33333349
453.61386108	4.31372547
453.61788940	4.31372547
453.62203979	4.27450991
453.62615967	4.27450991
453.62615967	4.29411745
453.63027954	4.29411745
453.63427734	4.31372547
453.63848877	4.31372547
453.63848877	4.25490189
453.64251709	3.45098042
453.64669800	2.86274505
453.65066528	4.35294104
453.65490723	4.37254906
453.65896606	4.33333349
453.65896606	4.27450991
453.66302490	4.17647076
453.66714478	4.15686274
453.67114258	2.88235283
453.67114258	2.88235283
453.67523193	2.94117641
453.67944336	4.39215708
453.68353271	4.33333349
453.68353271	4.27450991
453.68753052	4.27450991
453.69165039	4.31372547
453.69577026	4.31372547
453.69992065	4.25490189
453.70404053	4.27450991
453.70404053	4.29411745
453.70806885	4.27450991
453.71218872	4.29411745
453.71633911	4.33333349
453.71633911	4.35294104
453.72042847	4.31372547
453.72454834	4.29411745
453.72854614	4.29411745
453.72854614	4.29411745
453.73269653	4.31372547
453.73678589	4.27450991
453.74081421	4.21568632
453.74490356	4.17647076
453.74908447	4.19607830
453.74908447	4.27450991
453.75323486	4.31372547
453.75732422	4.29411745
453.76135254	4.25490189
453.76135254	4.07843161
453.76547241	2.88235283
453.76959229	2.86274505
453.77365112	2.84313726
453.77365112	3.31372547
453.77774048	4.33333349
453.78179932	4.29411745
453.78594971	4.27450991
453.78994751	4.29411745
453.79412842	4.29411745
453.79412842	4.29411745
453.79812622	4.29411745
453.80227661	4.25490189
453.80639648	4.21568632
453.80639648	4.21568632
453.81054688	4.21568632
453.81451416	4.23529434
453.81863403	4.23529434
453.81863403	4.25490189
453.82275391	4.29411745
453.82690430	4.31372547
453.83090210	4.29411745
453.83508301	4.27450991
453.83923340	4.25490189
453.83923340	4.25490189
453.84332275	4.23529434
453.84732056	4.23529434
453.85144043	4.25490189
453.85144043	4.27450991
453.85546875	4.27450991
453.85961914	4.25490189
453.86376953	4.23529434
453.86376953	4.19607830
453.86776733	4.19607830
453.87188721	4.25490189
453.87188721	4.25490189
453.87603760	4.25490189
453.88015747	4.25490189
453.88427734	4.23529434
453.88427734	4.17647076
453.88824463	4.21568632
453.89242554	4.25490189
453.89648438	4.25490189
453.89648438	4.25490189
453.90063477	4.23529434
453.90454102	4.21568632
453.90875244	4.19607830
453.90875244	4.25490189
453.91284180	4.29411745
453.91699219	4.27450991
453.91699219	4.27450991
453.92102051	4.21568632
453.92520142	4.17647076
453.92926025	4.23529434
453.92926025	4.25490189
453.93341064	4.25490189
453.93753052	4.23529434
453.94152832	4.25490189
453.94152832	4.23529434
453.94570923	4.15686274
453.94982910	4.17647076
453.95397949	4.23529434
453.95397949	4.25490189
453.95794678	4.23529434
453.96206665	4.25490189
453.96206665	4.25490189
453.96621704	4.25490189
453.97027588	4.23529434
453.97442627	4.25490189
453.97442627	4.19607830
453.97851563	4.11764717
453.98257446	4.07843161
453.98669434	2.88235283
453.98669434	2.88235283
453.99078369	2.88235283
453.99478149	2.88235283
453.99887085	4.35294104
453.99887085	4.31372547
454.00302124	4.15686274
454.00714111	2.88235283
454.00714111	2.88235283
454.01116943	2.88235283
454.01525879	2.92156863
454.01953125	4.31372547
454.01953125	4.29411745
454.02349854	4.23529434
454.02761841	4.25490189
454.03158569	4.31372547
454.03158569	4.31372547
454.03576660	4.29411745
454.03985596	4.19607830
454.04400635	2.88235283
454.04803467	2.88235283
454.05215454	2.88235283
454.05215454	2.88235283
454.05627441	2.88235283
454.06039429	2.84313726
454.06454468	2.88235283
454.06454468	2.88235283
454.06845093	2.88235283
454.07260132	2.86274505
454.07678223	2.84313726
454.07678223	2.84313726
454.08090210	2.88235283
454.08486938	2.88235283
454.08901978	4.31372547
454.09307861	4.31372547
454.09725952	4.29411745
454.09725952	4.23529434
454.10119629	4.09803915
454.10552979	2.88235283
454.10955811	2.88235283
454.10955811	2.86274505
454.11367798	2.84313726
454.11767578	2.88235283
454.12173462	2.88235283
454.12173462	2.88235283
454.12591553	2.88235283
454.13003540	2.84313726
454.13415527	3.09803915
454.13809204	2.88235283
454.14224243	2.88235283
454.14224243	2.88235283
454.14636230	2.88235283
454.15051270	2.88235283
454.15457153	2.88235283
454.15457153	2.88235283
454.15863037	2.86274505
454.16268921	2.88235283
454.16687012	2.84313726
454.16687012	3.41176462
454.17102051	4.29411745
454.17504883	4.21568632
454.17916870	2.88235283
454.18328857	2.86274505
454.18740845	2.86274505
454.18740845	2.98039222
454.19149780	3.84313726
454.19552612	4.25490189
454.19964600	4.23529434
454.19964600	4.23529434
454.20379639	4.21568632
454.20779419	4.15686274
454.21197510	4.19607830
454.21197510	4.23529434
454.21606445	4.25490189
454.22018433	4.15686274
454.22427368	2.88235283
454.22827148	2.88235283
454.23257446	2.88235283
454.23257446	2.88235283
454.23654175	2.88235283
454.24060059	2.88235283
454.24475098	2.88235283
454.24475098	2.88235283
454.24877930	2.88235283
454.25289917	3.15686274
454.25701904	4.33333349
454.25701904	4.33333349
454.26116943	4.29411745
454.26516724	4.27450991
454.26934814	4.31372547
454.27343750	4.29411745
454.27758789	4.29411745
454.27758789	4.29411745
454.28155518	4.31372547
454.28564453	4.33333349
454.28976440	4.31372547
454.28976440	4.33333349
454.29397583	4.31372547
454.29791260	4.29411745
454.30194092	4.23529434
454.30194092	4.23529434
454.30615234	4.31372547
454.31027222	4.35294104
454.31442261	4.39215708
454.31854248	4.35294104
454.32250977	4.29411745
454.32250977	4.25490189
454.32666016	4.31372547
454.33078003	4.39215708
454.33496094	4.37254906
454.33496094	4.35294104
454.33895874	4.35294104
454.34304810	4.33333349
454.34716797	4.31372547
454.34716797	4.33333349
454.35113525	4.35294104
454.35528564	4.31372547
454.35528564	4.31372547
454.35946655	4.31372547
454.36346436	4.23529434
454.36761475	4.31372547
454.36761475	4.37254906
454.37161255	4.39215708
454.37576294	4.35294104
454.37991333	4.27450991
454.37991333	4.23529434
454.38403320	4.31372547
454.38812256	4.35294104
454.39215088	4.37254906
454.39215088	4.33333349
454.39630127	4.35294104
454.40048218	4.39215708
454.40048218	4.41176462
454.40451050	4.37254906
454.40853882	4.37254906
454.41265869	4.37254906
454.41265869	4.37254906
454.41677856	4.37254906
454.42086792	4.33333349
454.42498779	4.23529434
454.42498779	4.29411745
454.42901611	4.37254906
454.43316650	4.39215708
454.43728638	4.37254906
454.43728638	4.35294104
454.44143677	4.31372547
454.44555664	4.31372547
454.44555664	4.35294104
454.44952393	4.39215708
454.45364380	4.39215708
454.45782471	4.35294104
454.45782471	3.35294127
454.46179199	3.27450991
454.46594238	4.39215708
454.47003174	4.41176462
454.47003174	4.39215708
454.47415161	4.37254906
454.47805786	4.39215708
454.48223877	4.35294104
454.48223877	4.37254906
454.48638916	4.39215708
454.49053955	4.37254906
454.49053955	4.31372547
454.49465942	4.37254906
454.49865723	4.39215708
454.50274658	4.37254906
454.50274658	4.31372547
454.50695801	4.35294104
454.51104736	4.35294104
454.51516724	4.37254906
454.51516724	4.35294104
454.51919556	4.37254906
454.52331543	4.37254906
454.52746582	4.31372547
454.53155518	4.33333349
454.53552246	4.29411745
454.53552246	4.41176462
454.53964233	4.43137264
454.54382324	4.39215708
454.54791260	4.33333349
454.54791260	4.33333349
454.55191040	4.41176462
454.55606079	4.41176462
454.56021118	4.39215708
454.56021118	4.37254906
454.56433105	4.31372547
454.56845093	4.33333349
454.57257080	4.33333349
454.57659912	4.41176462
454.58071899	4.37254906
454.58071899	4.31372547
454.58480835	4.29411745
454.58892822	4.27450991
454.59295654	4.27450991
454.59295654	4.37254906
454.59704590	4.41176462
454.60113525	4.37254906
454.60531616	4.29411745
454.60531616	4.31372547
454.60928345	4.31372547
454.61340332	4.37254906
454.61752319	4.35294104
454.62179565	4.31372547
454.62573242	4.29411745
454.62573242	4.31372547
454.62982178	4.31372547
454.63394165	4.33333349
454.63803101	4.29411745
454.63803101	4.35294104
454.64208984	4.25490189
454.64620972	2.88235283
454.65032959	3.03921580
454.65032959	4.33333349
454.65444946	4.37254906
454.65856934	4.37254906
454.66250610	4.23529434
454.66665649	4.23529434
454.67080688	4.27450991
454.67080688	4.23529434
454.67492676	2.88235283
454.67889404	4.41176462
454.68307495	4.37254906
454.68307495	4.23529434
454.68722534	3.41176462
454.69137573	2.86274505
454.69546509	3.31372547
454.69546509	4.31372547
454.69958496	4.07843161
454.70358276	4.29411745
454.70767212	4.17647076
454.71182251	3.47058821
454.71575928	4.33333349
454.71575928	4.21568632
454.71990967	3.13725495
454.72402954	2.88235283
454.72814941	2.86274505
454.72814941	2.88235283
454.73220825	3.17647052
454.73626709	4.29411745
454.74041748	2.88235283
454.74041748	3.82352948
454.74456787	4.31372547
454.74871826	2.88235283
454.75280762	4.31372547
454.75680542	4.31372547
454.76095581	4.27450991
454.76095581	4.23529434
454.76507568	2.90196085
454.76907349	2.88235283
454.77319336	4.39215708
454.77319336	4.33333349
454.77731323	3.35294127
454.78143311	2.88235283
454.78552246	2.88235283
454.78552246	2.88235283
454.78952026	2.88235283
454.79370117	2.86274505
454.79776001	3.80392146
454.80175781	4.25490189
454.80593872	2.94117641
454.80593872	2.88235283
454.81008911	2.84313726
454.81420898	4.25490189
454.81832886	2.88235283
454.81832886	2.88235283
454.82232666	2.88235283
454.82659912	2.88235283
454.83062744	2.88235283
454.83062744	3.86274505
454.83465576	4.33333349
454.83892822	3.29411769
454.83892822	2.88235283
454.84283447	2.88235283
454.84689331	4.43137264
454.85101318	4.31372547
454.85101318	4.41176462
454.85519409	4.35294104
454.85916138	3.54901958
454.86325073	2.90196085
454.86325073	2.88235283
454.86740112	4.33333349
454.87152100	2.90196085
454.87567139	2.86274505
454.87567139	2.88235283
454.87963867	3.29411769
454.88375854	4.11764717
454.88375854	2.88235283
454.88793945	3.54901958
454.89190674	2.88235283
454.89596558	2.88235283
454.89596558	4.35294104
454.90020752	4.23529434
454.90429688	2.88235283
454.90838623	2.88235283
454.90838623	2.88235283
454.91253662	2.90196085
454.91653442	2.88235283
454.92062378	2.88235283
454.92062378	4.25490189
454.92480469	4.35294104
454.92886353	2.90196085
454.92886353	2.88235283
454.93289185	3.74509811
454.93701172	4.21568632
454.94116211	3.27450991
454.94116211	4.13725471
454.94528198	3.76470590
454.94924927	2.88235283
454.95352173	4.39215708
454.95352173	4.39215708
454.95748901	2.90196085
454.96170044	2.86274505
454.96566772	4.31372547
454.96566772	4.39215708
454.96978760	2.88235283
454.97387695	2.86274505
454.97387695	4.35294104
454.97802734	4.31372547
454.98208618	3.92156863
454.98614502	2.90196085
454.98614502	2.84313726
454.99020386	2.90196085
454.99438477	4.41176462
454.99850464	4.45098019
454.99850464	3.29411769
455.00250244	2.90196085
455.00665283	2.86274505
455.01074219	4.41176462
455.01489258	2.88235283
455.01901245	4.25490189
455.01901245	3.86274505
455.02307129	2.88235283
455.02722168	2.88235283
455.03128052	4.41176462
455.03128052	4.33333349
455.03540039	4.31372547
455.03952026	4.29411745
455.04354858	3.21568632
455.04354858	2.88235283
455.04769897	2.88235283
455.05169678	2.84313726
455.05575562	4.39215708
455.05981445	4.35294104
455.06402588	3.60784316
455.06402588	2.90196085
455.06814575	2.86274505
455.07211304	4.45098019
455.07626343	4.19607830
455.07626343	4.33333349
455.08041382	4.29411745
455.08453369	3.76470590
455.08868408	3.03921580
455.08868408	4.33333349
455.09271240	4.31372547
455.09680176	2.88235283
455.10089111	4.31372547
455.10504150	4.31372547
455.10906982	4.25490189
455.10906982	4.33333349
455.11306763	4.41176462
455.11727905	4.35294104
455.12133789	4.35294104
455.12133789	4.33333349
455.12554932	4.33333349
455.12948608	4.35294104
455.13366699	4.27450991
455.13366699	4.41176462
455.13775635	4.37254906
455.14190674	4.35294104
455.14593506	4.31372547
455.15005493	4.31372547
455.15420532	4.39215708
455.15420532	4.41176462
455.15829468	4.35294104
455.16226196	4.33333349
455.16650391	4.31372547
455.16650391	4.35294104
455.17050171	4.41176462
455.17462158	4.43137264
455.17874146	4.39215708
455.17874146	4.37254906
455.18273926	4.35294104
455.18685913	4.35294104
455.19104004	4.41176462
455.19515991	4.41176462
455.19927979	4.41176462
455.19927979	4.41176462
455.20324707	4.39215708
455.20748901	4.39215708
455.21154785	4.41176462
455.21154785	4.43137264
455.21557617	4.43137264
455.21969604	4.43137264
455.22378540	4.41176462
455.22378540	4.39215708
455.22781372	4.39215708
455.23199463	4.41176462
455.23599243	4.43137264
455.24014282	4.41176462
455.24429321	4.37254906
455.24429321	4.41176462
455.24838257	4.41176462
455.25253296	4.43137264
455.25650024	4.43137264
455.25650024	4.43137264
455.26065063	4.37254906
455.26477051	4.37254906
455.26889038	4.35294104
455.26889038	4.39215708
455.27294922	4.41176462
455.27709961	4.41176462
455.28118896	4.39215708
455.28527832	4.37254906
455.28939819	4.37254906
455.28939819	4.39215708
455.29354858	4.41176462
455.29754639	4.39215708
455.30163574	4.37254906
455.30163574	4.37254906
455.30566406	4.37254906
455.30981445	4.35294104
455.31393433	4.37254906
455.31393433	4.33333349
455.31805420	4.39215708
455.32217407	4.33333349
455.32217407	4.31372547
455.32620239	4.31372547
455.33032227	4.39215708
455.33444214	4.37254906
455.33444214	4.37254906
455.33865356	4.39215708
455.34255981	4.33333349
455.34664917	4.31372547
455.34664917	4.33333349
455.35076904	4.37254906
455.35491943	4.41176462
455.35910034	4.39215708
455.35910034	4.37254906
455.36300659	4.31372547
455.36712646	4.33333349
455.36712646	4.37254906
455.37130737	4.37254906
455.37548828	4.39215708
455.37957764	4.35294104
455.37957764	4.33333349
455.38357544	4.31372547
455.38769531	4.35294104
455.39184570	4.33333349
455.39184570	4.37254906
455.39581299	4.31372547
455.39993286	4.37254906
455.40405273	4.33333349
455.40405273	4.21568632
455.40814209	4.31372547
455.41226196	4.41176462
455.41226196	4.35294104
455.41625977	4.39215708
455.42053223	4.37254906
455.42456055	4.31372547
455.42456055	4.29411745
455.42864990	4.31372547
455.43267822	4.35294104
455.43679810	4.35294104
455.43679810	4.35294104
455.44097900	4.29411745
455.44506836	4.27450991
455.44921875	4.33333349
455.44921875	4.33333349
455.45318604	4.35294104
455.45736694	4.35294104
455.45736694	4.33333349
455.46142578	4.31372547
455.46554565	4.31372547
455.46966553	4.31372547
455.46966553	4.33333349
455.47363281	4.35294104
455.47778320	4.31372547
455.48190308	4.31372547
455.48190308	4.29411745
455.48590088	2.88235283
455.49002075	3.45098042
455.49417114	4.33333349
455.49832153	4.31372547
455.50250244	4.33333349
455.50250244	4.31372547
455.50653076	4.31372547
455.51055908	4.33333349
455.51467896	4.33333349
455.51467896	4.35294104
455.51876831	4.31372547
455.52279663	4.29411745
455.52691650	4.31372547
455.52691650	4.29411745
455.53103638	4.31372547
455.53512573	4.33333349
455.53927612	4.31372547
455.54330444	4.29411745
455.54754639	4.29411745
455.54754639	4.31372547
455.55154419	4.31372547
455.55572510	4.31372547
455.55978394	4.27450991
455.55978394	4.29411745
455.56381226	4.31372547
455.56793213	4.31372547
455.57205200	4.31372547
455.57205200	4.23529434
455.57608032	4.31372547
455.58016968	4.39215708
455.58432007	4.25490189
455.58853149	4.29411745
455.59255981	4.31372547
455.59255981	4.35294104
455.59652710	4.39215708
455.60064697	4.35294104
455.60473633	4.29411745
455.60473633	4.29411745
455.60894775	4.33333349
455.61288452	4.31372547
455.61700439	4.31372547
455.61700439	4.29411745
455.62109375	4.27450991
455.62527466	4.01960802
455.62939453	2.88235283
455.63351440	4.29411745
455.63748169	4.27450991
455.63748169	4.25490189
455.64166260	4.23529434
455.64572144	4.23529434
455.64996338	4.23529434
455.64996338	4.29411745
455.65393066	4.29411745
455.65802002	4.21568632
455.66213989	3.17647052
455.66213989	2.90196085
455.66619873	2.90196085
455.67025757	2.90196085
455.67440796	4.21568632
455.67846680	4.29411745
455.68264771	4.19607830
455.68264771	4.11764717
455.68661499	2.90196085
455.69070435	2.90196085
455.69488525	3.11764717
455.69488525	4.27450991
455.69903564	4.25490189
455.70300293	4.27450991
455.70709229	4.29411745
455.70709229	4.25490189
455.71133423	4.23529434
455.71542358	4.23529434
455.71951294	4.09803915
455.72351074	2.90196085
455.72763062	2.90196085
455.72763062	2.88235283
455.73181152	2.88235283
455.73587036	2.86274505
455.73995972	2.88235283
455.73995972	2.90196085
455.74398804	2.88235283
455.74810791	2.88235283
455.75225830	2.88235283
455.75225830	2.88235283
455.75625610	2.84313726
455.76049805	2.88235283
455.76452637	2.90196085
455.76867676	2.90196085
455.77273560	2.90196085
455.77273560	3.01960778
455.77682495	4.31372547
455.78091431	4.21568632
455.78500366	4.00000000
455.78500366	2.90196085
455.78912354	2.88235283
455.79318237	3.17647052
455.79727173	4.31372547
455.79727173	4.27450991
455.80130005	4.23529434
455.80554199	4.01960802
455.80554199	2.88235283
455.80963135	2.88235283
455.81359863	2.90196085
455.81777954	2.86274505
455.81777954	2.86274505
455.82183838	2.88235283
455.82601929	2.88235283
455.83013916	2.86274505
455.83013916	2.96078420
455.83416748	3.49019599
455.83828735	4.27450991
455.84243774	4.27450991
455.84243774	4.23529434
455.84652710	4.21568632
455.85052490	4.21568632
455.85052490	4.25490189
455.85461426	4.25490189
455.85873413	4.25490189
455.86279297	4.15686274
455.86279297	3.31372547
455.86688232	2.88235283
455.87100220	2.88235283
455.87515259	2.90196085
455.87515259	2.90196085
455.87927246	2.88235283
455.88339233	2.88235283
455.88751221	2.88235283
455.88751221	2.84313726
455.89144897	4.13725471
455.89556885	4.31372547
455.89556885	4.33333349
455.89953613	4.27450991
455.90371704	4.23529434
455.90789795	4.29411745
455.90789795	4.33333349
455.91195679	4.35294104
455.91613770	4.33333349
455.92025757	4.31372547
455.92025757	4.31372547
455.92425537	4.31372547
455.92837524	4.29411745
455.93252563	4.29411745
455.93252563	4.31372547
455.93649292	4.35294104
455.94061279	4.35294104
455.94061279	4.31372547
455.94476318	4.29411745
455.94888306	4.31372547
455.95300293	4.31372547
455.95300293	4.29411745
455.95700073	4.29411745
455.96118164	4.29411745
455.96533203	4.29411745
455.96533203	4.25490189
455.96942139	4.29411745
455.97354126	4.31372547
455.97750854	4.25490189
455.98159790	4.23529434
455.98568726	4.23529434
455.98568726	4.25490189
455.98989868	4.27450991
455.99386597	4.25490189
455.99801636	4.29411745
455.99801636	4.31372547
456.00213623	4.29411745
456.00622559	4.29411745
456.01025391	4.29411745
456.01025391	4.31372547
456.01452637	4.35294104
456.01849365	4.33333349
456.02267456	4.29411745
456.02670288	4.29411745
456.03076172	4.31372547
456.03076172	4.31372547
456.03491211	4.31372547
456.03890991	4.29411745
456.04309082	4.25490189
456.04309082	4.23529434
456.04705811	4.27450991
456.05120850	4.29411745
456.05541992	4.29411745
456.05541992	4.29411745
456.05950928	4.23529434
456.06347656	4.19607830
456.06762695	4.25490189
456.07168579	4.27450991
456.07589722	4.29411745
456.07589722	4.27450991
456.08001709	4.23529434
456.08395386	4.21568632
456.08810425	4.23529434
456.08810425	4.27450991
456.09219360	4.29411745
456.09634399	4.29411745
456.10043335	4.29411745
456.10043335	4.23529434
456.10449219	4.23529434
456.10861206	4.23529434
456.11276245	4.29411745
456.11672974	4.29411745
456.12084961	4.25490189
456.12084961	4.13725471
456.12500000	4.15686274
456.12911987	4.23529434
456.13330078	4.29411745
456.13330078	4.29411745
456.13729858	4.27450991
456.14144897	4.25490189
456.14553833	4.21568632
456.14553833	4.23529434
456.14962769	4.21568632
456.15368652	4.29411745
456.15777588	4.31372547
456.16189575	4.29411745
456.16601563	4.25490189
456.16601563	4.23529434
456.17007446	4.31372547
456.17416382	4.31372547
456.17825317	4.31372547
456.17825317	4.27450991
456.18249512	4.27450991
456.18655396	4.23529434
456.19052124	4.27450991
456.19052124	4.29411745
456.19464111	4.29411745
456.19876099	4.29411745
456.20291138	4.25490189
456.20687866	4.25490189
456.21096802	4.29411745
456.21096802	4.29411745
456.21511841	4.29411745
456.21920776	4.29411745
456.22338867	4.25490189
456.22338867	4.25490189
456.22744751	4.27450991
456.23147583	4.29411745
456.23562622	4.31372547
456.23562622	4.29411745
456.23974609	4.25490189
456.24389648	4.29411745
456.24786377	4.25490189
456.25201416	4.29411745
456.25613403	4.29411745
456.25613403	4.27450991
456.26016235	4.21568632
456.26425171	4.15686274
456.26852417	4.23529434
456.26852417	4.25490189
456.27246094	4.25490189
456.27664185	4.29411745
456.28057861	4.27450991
456.28057861	4.19607830
456.28472900	3.09803915
456.28884888	2.88235283
456.28884888	2.92156863
456.29299927	4.29411745
456.29696655	4.29411745
456.30114746	4.29411745
456.30114746	4.23529434
456.30526733	4.23529434
456.30941772	4.25490189
456.31350708	4.29411745
456.31350708	4.29411745
456.31750488	4.27450991
456.32159424	4.19607830
456.32574463	3.27450991
456.32574463	2.90196085
456.32989502	2.86274505
456.33398438	3.33333325
456.33398438	4.29411745
456.33801270	4.27450991
456.34207153	4.23529434
456.34622192	4.21568632
456.34622192	4.25490189
456.35018921	4.23529434
456.35443115	4.19607830
456.35848999	4.23529434
456.35848999	4.27450991
456.36260986	4.25490189
456.36676025	4.27450991
456.37078857	4.27450991
456.37078857	4.27450991
456.37490845	4.25490189
456.37902832	4.29411745
456.37902832	4.25490189
456.38314819	3.09803915
456.38714600	2.90196085
456.39126587	2.90196085
456.39126587	3.60784316
456.39535522	4.37254906
456.39950562	4.35294104
456.40356445	4.29411745
456.40356445	4.23529434
456.40756226	4.21568632
456.41174316	4.27450991
456.41580200	4.31372547
456.41580200	4.29411745
456.41998291	4.29411745
456.42416382	4.27450991
456.42416382	4.21568632
456.42816162	4.13725471
456.43225098	4.27450991
456.43640137	4.29411745
456.43640137	4.29411745
456.44049072	4.09803915
456.44451904	2.90196085
456.44863892	2.90196085
456.44863892	2.88235283
456.45275879	2.84313726
456.45684814	4.31372547
456.46093750	4.25490189
456.46502686	2.90196085
456.46914673	2.90196085
456.46914673	2.90196085
456.47323608	2.90196085
456.47726440	2.90196085
456.48153687	2.88235283
456.48153687	2.90196085
456.48550415	2.90196085
456.48956299	2.90196085
456.49371338	2.90196085
456.49371338	2.90196085
456.49774170	4.37254906
456.50192261	4.31372547
456.50598145	4.19607830
456.51013184	4.07843161
456.51425171	4.23529434
456.51425171	4.25490189
456.51831055	4.23529434
456.52236938	4.23529434
456.52658081	4.21568632
456.52658081	4.21568632
456.53054810	4.27450991
456.53463745	4.27450991
456.53875732	4.25490189
456.53875732	4.19607830
456.54293823	3.05882359
456.54699707	2.90196085
456.55090332	2.88235283
456.55514526	2.88235283
456.55926514	3.03921580
456.55926514	2.90196085
456.56338501	2.90196085
456.56750488	2.90196085
456.57144165	2.90196085
456.57144165	2.88235283
456.57562256	2.90196085
456.57974243	2.90196085
456.58392334	2.90196085
456.58392334	2.90196085
456.58795166	2.90196085
456.59204102	2.88235283
456.59613037	2.90196085
456.60025024	2.90196085
456.60443115	2.90196085
456.60443115	2.90196085
456.60845947	2.90196085
456.61245728	2.86274505
456.61663818	2.88235283
456.61663818	2.88235283
456.62063599	2.88235283
456.62475586	2.90196085
456.62887573	2.90196085
456.62887573	2.88235283
456.63299561	2.88235283
456.63711548	2.90196085
456.64111328	2.90196085
456.64529419	2.90196085
456.64941406	2.90196085
456.64941406	3.50980401
456.65356445	2.90196085
456.65753174	2.90196085
456.66162109	2.90196085
456.66162109	2.90196085
456.66574097	2.90196085
456.66986084	2.90196085
456.67395020	2.90196085
456.67395020	2.90196085
456.67800903	2.84313726
456.68212891	3.37254906
456.68624878	4.21568632
456.69036865	4.13725471
456.69451904	4.15686274
456.69451904	4.23529434
456.69851685	4.25490189
456.70263672	4.23529434
456.70672607	4.21568632
456.70672607	4.29411745
456.71078491	4.35294104
456.71493530	4.33333349
456.71905518	4.29411745
456.71905518	4.29411745
456.72314453	4.23529434
456.72723389	4.23529434
456.73120117	4.37254906
456.73541260	4.37254906
456.73950195	4.37254906
456.73950195	4.37254906
456.74362183	4.35294104
456.74761963	4.29411745
456.75173950	4.27450991
456.75173950	4.37254906
456.75585938	4.43137264
456.76000977	4.43137264
456.76412964	4.37254906
456.76412964	4.39215708
456.76809692	4.41176462
456.77227783	4.41176462
456.77227783	4.39215708
456.77639771	4.35294104
456.78054810	4.35294104
456.78463745	4.35294104
456.78463745	4.33333349
456.78854370	4.29411745
456.79272461	4.31372547
456.79678345	4.37254906
456.79678345	4.41176462
456.80087280	4.41176462
456.80499268	4.37254906
456.80914307	4.35294104
456.80914307	4.39215708
456.81326294	4.37254906
456.81738281	4.37254906
456.81738281	4.39215708
456.82144165	4.39215708
456.82550049	4.37254906
456.82962036	4.39215708
456.82962036	4.41176462
456.83377075	4.33333349
456.83770752	4.35294104
456.84185791	4.39215708
456.84185791	4.39215708
456.84591675	4.37254906
456.85009766	4.37254906
456.85418701	4.39215708
456.85418701	4.39215708
456.85821533	4.39215708
456.86251831	4.39215708
456.86251831	4.37254906
456.86651611	4.35294104
456.87063599	4.41176462
456.87475586	4.43137264
456.87475586	4.39215708
456.87875366	4.37254906
456.88293457	4.35294104
456.88705444	4.31372547
456.88705444	4.35294104
456.89105225	4.41176462
456.89520264	4.41176462
456.89929199	4.43137264
456.89929199	4.39215708
456.90341187	4.39215708
456.90753174	4.41176462
456.90753174	4.41176462
456.91149902	4.41176462
456.91561890	4.39215708
456.91973877	4.39215708
456.91973877	4.39215708
456.92391968	4.41176462
456.92785645	4.41176462
456.93197632	4.41176462
456.93197632	4.41176462
456.93615723	4.35294104
456.94024658	4.33333349
456.94436646	4.43137264
456.94851685	4.41176462
456.95248413	4.41176462
456.95248413	4.41176462
456.95660400	4.39215708
456.96075439	4.37254906
456.96472168	4.39215708
456.96472168	4.41176462
456.96878052	4.41176462
456.97293091	4.41176462
456.97711182	4.39215708
456.97711182	4.41176462
456.98104858	4.39215708
456.98522949	4.35294104
456.98937988	4.41176462
456.99349976	4.41176462
456.99761963	4.39215708
456.99761963	4.37254906
457.00161743	4.31372547
457.00573730	4.35294104
457.00988770	4.31372547
457.00988770	4.39215708
457.01400757	4.43137264
457.01800537	4.39215708
457.02212524	4.33333349
457.02212524	4.35294104
457.02621460	4.37254906
457.03045654	4.37254906
457.03451538	4.39215708
457.03848267	4.33333349
457.04260254	4.33333349
457.04260254	4.33333349
457.04678345	4.33333349
457.05087280	4.37254906
457.05499268	4.39215708
457.05499268	4.35294104
457.05899048	4.31372547
457.06311035	4.31372547
457.06726074	4.35294104
457.06726074	4.35294104
457.07125854	4.29411745
457.07553101	4.39215708
457.07946777	4.31372547
457.08361816	4.29411745
457.08770752	4.29411745
457.08770752	4.23529434
457.09179688	4.37254906
457.09591675	4.39215708
457.10003662	4.33333349
457.10003662	4.21568632
457.10415649	4.21568632
457.10818481	4.25490189
457.11227417	4.25490189
457.11227417	4.33333349
457.11636353	4.33333349
457.12048340	4.25490189
457.12466431	2.90196085
457.12866211	2.90196085
457.13275146	3.11764717
457.13275146	4.29411745
457.13687134	4.29411745
457.14102173	4.21568632
457.14505005	2.90196085
457.14505005	2.90196085
457.14916992	2.90196085
457.15328979	2.84313726
457.15747070	3.45098042
457.15747070	4.23529434
457.16156006	3.33333325
457.16555786	2.90196085
457.16964722	2.88235283
457.17379761	2.88235283
457.17788696	2.84313726
457.17788696	3.45098042
457.18185425	2.90196085
457.18600464	2.90196085
457.19018555	2.90196085
457.19018555	2.88235283
457.19424438	2.88235283
457.19824219	3.52941179
457.20251465	4.25490189
457.20251465	2.90196085
457.20654297	2.90196085
457.21066284	2.88235283
457.21478271	3.03921580
457.21878052	3.19607854
457.22290039	2.88235283
457.22290039	2.90196085
457.22705078	2.90196085
457.23110962	2.90196085
457.23510742	2.88235283
457.23510742	3.31372547
457.23922729	4.29411745
457.24328613	3.98039222
457.24746704	2.90196085
457.24746704	2.88235283
457.25149536	4.33333349
457.25564575	4.29411745
457.25564575	4.31372547
457.25973511	4.19607830
457.26388550	2.90196085
457.26800537	2.90196085
457.26800537	2.90196085
457.27197266	4.39215708
457.27612305	4.27450991
457.28021240	4.23529434
457.28021240	4.23529434
457.28436279	2.90196085
457.28842163	2.88235283
457.29248047	2.98039222
457.29248047	4.35294104
457.29656982	4.27450991
457.30068970	3.21568632
457.30068970	2.88235283
457.30465698	2.88235283
457.30880737	2.88235283
457.31292725	4.27450991
457.31292725	4.27450991
457.31704712	4.13725471
457.32116699	4.23529434
457.32519531	4.21568632
457.32519531	4.15686274
457.32931519	4.19607830
457.33343506	4.29411745
457.33755493	4.29411745
457.33755493	4.17647076
457.34155273	4.23529434
457.34573364	4.19607830
457.34573364	4.23529434
457.34976196	4.35294104
457.35394287	4.37254906
457.35806274	4.25490189
457.35806274	2.90196085
457.36206055	3.72549009
457.36618042	3.76470590
457.37036133	2.90196085
457.37036133	4.45098019
457.37454224	4.25490189
457.37847900	4.29411745
457.38259888	4.17647076
457.38259888	2.86274505
457.38671875	2.90196085
457.39086914	2.90196085
457.39086914	2.90196085
457.39486694	4.15686274
457.39895630	4.33333349
457.40310669	3.03921580
457.40310669	2.90196085
457.40722656	2.88235283
457.41128540	4.01960802
457.41546631	2.90196085
457.41546631	2.90196085
457.41940308	4.33333349
457.42358398	2.90196085
457.42773438	3.84313726
457.43173218	4.15686274
457.43585205	2.94117641
457.43585205	2.90196085
457.43997192	2.90196085
457.44412231	3.27450991
457.44824219	4.27450991
457.44824219	2.90196085
457.45227051	4.45098019
457.45635986	3.86274505
457.46054077	2.90196085
457.46054077	4.33333349
457.46469116	2.92156863
457.46865845	2.88235283
457.47280884	4.37254906
457.47689819	2.90196085
457.48101807	2.92156863
457.48101807	4.43137264
457.48498535	4.41176462
457.48916626	2.90196085
457.49325562	2.90196085
457.49325562	4.37254906
457.49737549	4.11764717
457.50149536	2.92156863
457.50552368	2.90196085
457.50552368	4.25490189
457.50967407	4.15686274
457.51382446	2.88235283
457.51794434	3.15686274
457.52188110	4.45098019
457.52603149	2.92156863
457.52603149	2.92156863
457.53015137	4.41176462
457.53430176	4.43137264
457.53848267	4.13725471
457.53848267	4.19607830
457.54254150	4.23529434
457.54647827	4.19607830
457.55062866	2.92156863
457.55062866	2.88235283
457.55477905	4.45098019
457.55877686	4.37254906
457.56289673	2.90196085
457.56704712	3.43137264
457.57107544	4.37254906
457.57107544	4.21568632
457.57510376	4.23529434
457.57922363	4.35294104
457.58349609	4.15686274
457.58349609	2.90196085
457.58749390	2.90196085
457.59146118	4.37254906
457.59558105	4.29411745
457.59558105	4.37254906
457.59967041	4.29411745
457.60382080	4.29411745
457.60794067	4.31372547
457.61196899	4.29411745
457.61611938	2.90196085
457.61611938	2.94117641
457.62023926	4.43137264
457.62438965	4.33333349
457.62847900	4.29411745
457.62847900	4.33333349
457.63247681	4.35294104
457.63662720	4.35294104
457.64074707	4.33333349
457.64074707	4.21568632
457.64486694	2.90196085
457.64886475	4.33333349
457.65295410	4.37254906
457.65710449	4.33333349
457.66116333	4.37254906
457.66116333	4.25490189
457.66519165	4.35294104
457.66943359	4.37254906
457.67346191	4.35294104
457.67346191	4.39215708
457.67761230	4.37254906
457.68161011	4.33333349
457.68572998	4.37254906
457.68572998	4.39215708
457.68984985	4.41176462
457.69400024	4.41176462
457.69400024	4.35294104
457.69808960	4.41176462
457.70208740	4.41176462
457.70620728	4.39215708
457.70620728	4.39215708
457.71035767	4.39215708
457.71444702	4.41176462
457.71868896	4.43137264
457.71868896	4.39215708
457.72265625	4.39215708
457.72671509	4.37254906
457.73086548	4.41176462
457.73086548	4.43137264
457.73504639	4.41176462
457.73913574	4.37254906
457.73913574	4.37254906
457.74310303	4.37254906
457.74722290	4.37254906
457.75137329	4.37254906
457.75137329	4.41176462
457.75546265	4.39215708
457.75949097	4.37254906
457.76364136	4.37254906
457.76364136	4.33333349
457.76776123	4.35294104
457.77169800	4.35294104
457.77593994	4.37254906
457.77593994	4.43137264
457.78002930	4.35294104
457.78414917	4.37254906
457.78414917	4.39215708
457.78826904	4.35294104
457.79223633	4.37254906
457.79653931	4.33333349
457.79653931	4.39215708
457.80047607	4.33333349
457.80462646	4.31372547
457.80868530	4.29411745
457.80868530	4.37254906
457.81271362	4.39215708
457.81686401	4.35294104
457.82098389	4.37254906
457.82098389	4.39215708
457.82513428	4.39215708
457.82910156	4.29411745
457.82910156	4.29411745
457.83322144	4.29411745
457.83734131	4.47058821
457.84152222	4.35294104
457.84152222	4.23529434
457.84552002	4.25490189
457.84960938	4.31372547
457.85372925	4.25490189
457.85372925	4.37254906
457.85784912	4.47058821
457.86199951	3.41176462
457.86599731	2.90196085
457.86599731	4.41176462
457.87002563	4.39215708
457.87420654	4.41176462
457.87420654	4.37254906
457.87835693	4.33333349
457.88250732	4.31372547
457.88647461	4.29411745
457.88647461	4.35294104
457.89062500	4.35294104
457.89474487	4.33333349
457.89886475	4.39215708
457.89886475	3.33333325
457.90292358	4.35294104
457.90701294	4.41176462
457.91113281	4.33333349
457.91525269	4.37254906
457.91921997	4.33333349
457.91921997	3.29411769
457.92349243	3.07843137
457.92749023	4.41176462
457.93154907	4.31372547
457.93154907	4.39215708
457.93557739	4.39215708
457.93975830	4.33333349
457.94387817	4.31372547
457.94387817	4.31372547
457.94799805	4.33333349
457.95205688	4.37254906
457.95608521	4.31372547
457.96026611	4.41176462
457.96435547	4.39215708
457.96435547	4.29411745
457.96853638	4.37254906
457.97253418	4.37254906
457.97668457	4.37254906
457.97668457	4.37254906
457.98077393	4.35294104
457.98486328	4.35294104
457.98892212	4.37254906
457.98892212	4.37254906
457.99295044	4.37254906
457.99707031	4.33333349
458.00125122	4.27450991
458.00537109	4.35294104
458.00949097	4.41176462
458.00949097	4.35294104
458.01348877	4.37254906
458.01760864	4.37254906
458.02172852	4.33333349
458.02172852	4.31372547
458.02572632	4.35294104
458.02984619	4.37254906
458.03393555	4.39215708
458.03393555	4.37254906
458.03808594	4.37254906
458.04214478	4.33333349
458.04623413	4.29411745
458.05026245	4.35294104
458.05447388	4.29411745
458.05447388	4.43137264
458.05862427	4.39215708
458.06259155	4.33333349
458.06671143	4.29411745
458.06671143	4.35294104
458.07086182	4.39215708
458.07498169	4.35294104
458.07910156	4.29411745
458.07910156	4.23529434
458.08312988	4.35294104
458.08731079	4.29411745
458.09143066	4.31372547
458.09548950	4.31372547
458.09948730	4.31372547
458.09948730	4.25490189
458.10363770	4.29411745
458.10772705	4.31372547
458.11187744	4.29411745
458.11187744	4.29411745
458.11584473	4.29411745
458.12002563	4.27450991
458.12414551	4.25490189
458.12414551	4.25490189
458.12823486	4.29411745
458.13241577	4.25490189
458.13653564	4.31372547
458.14050293	4.25490189
458.14462280	2.90196085
458.14462280	2.90196085
458.14874268	2.88235283
458.15270996	4.39215708
458.15686035	4.31372547
458.15686035	4.23529434
458.16098022	4.27450991
458.16506958	4.29411745
458.16915894	4.29411745
458.16915894	4.29411745
458.17321777	4.25490189
458.17742920	4.31372547
458.17742920	4.31372547
458.18145752	4.29411745
458.18560791	4.23529434
458.18963623	4.23529434
458.18963623	4.31372547
458.19372559	4.29411745
458.19784546	4.27450991
458.20199585	4.21568632
458.20199585	4.15686274
458.20599365	4.17647076
458.21011353	4.19607830
458.21423340	4.23529434
458.21423340	4.29411745
458.21838379	4.29411745
458.22247314	4.13725471
458.22247314	2.90196085
458.22647095	2.90196085
458.23056030	2.90196085
458.23477173	2.90196085
458.23477173	2.88235283
458.23883057	2.90196085
458.24279785	2.86274505
458.24694824	2.90196085
458.24694824	3.17647052
458.25109863	3.41176462
458.25521851	4.29411745
458.25936890	4.25490189
458.25936890	4.15686274
458.26348877	4.15686274
458.26748657	4.21568632
458.26748657	4.21568632
458.27157593	4.17647076
458.27560425	2.90196085
458.27975464	2.90196085
458.27975464	2.90196085
458.28390503	3.35294127
458.28799438	2.98039222
458.29214478	2.86274505
458.29214478	2.86274505
458.29614258	2.88235283
458.30023193	2.88235283
458.30435181	2.90196085
458.30435181	2.90196085
458.30850220	2.88235283
458.31253052	2.90196085
458.31253052	2.86274505
458.31655884	2.88235283
458.32073975	2.90196085
458.32485962	2.90196085
458.32485962	2.90196085
458.32901001	2.90196085
458.33297729	2.90196085
458.33709717	2.88235283
458.33709717	2.90196085
458.34124756	2.90196085
458.34539795	2.90196085
458.34948730	2.88235283
458.34948730	3.09803915
458.35354614	4.21568632
458.35763550	4.25490189
458.35763550	4.25490189
458.36172485	4.21568632
458.36572266	4.21568632
458.36981201	4.29411745
458.36981201	4.31372547
458.37390137	4.31372547
458.37808228	4.27450991
458.38223267	4.27450991
458.38223267	4.29411745
458.38623047	4.29411745
458.39047241	4.29411745
458.39447021	4.25490189
458.39859009	4.27450991
458.40274048	4.21568632
458.40274048	4.23529434
458.40670776	4.29411745
458.41088867	4.33333349
458.41497803	4.25490189
458.41497803	4.23529434
458.41912842	4.27450991
458.42309570	4.29411745
458.42721558	4.25490189
458.42721558	4.29411745
458.43130493	4.31372547
458.43539429	4.29411745
458.43948364	4.23529434
458.44360352	2.90196085
458.44772339	2.90196085
458.44772339	3.19607854
458.45187378	4.39215708
458.45584106	4.37254906
458.45999146	4.35294104
458.45999146	4.29411745
458.46411133	4.31372547
458.46823120	4.31372547
458.47241211	4.31372547
458.47241211	4.29411745
458.47653198	4.31372547
458.48052979	4.29411745
458.48464966	4.29411745
458.48873901	4.31372547
458.49288940	4.31372547
458.49288940	4.31372547
458.49688721	4.29411745
458.50097656	4.29411745
458.50509644	4.29411745
458.50509644	4.29411745
458.50927734	4.29411745
458.51327515	4.29411745
458.51748657	4.29411745
458.51748657	4.27450991
458.52151489	4.23529434
458.52569580	4.23529434
458.52966309	4.29411745
458.53378296	4.25490189
458.53802490	4.25490189
458.53802490	4.25490189
458.54205322	4.21568632
458.54598999	4.21568632
458.55010986	4.21568632
458.55010986	4.25490189
458.55422974	4.23529434
458.55841064	4.23529434
458.56246948	4.15686274
458.56246948	4.21568632
458.56646729	4.25490189
458.57061768	4.27450991
458.57482910	4.29411745
458.57888794	4.29411745
458.58303833	4.25490189
458.58303833	4.25490189
458.58700562	4.23529434
458.59118652	4.25490189
458.59524536	4.19607830
458.59524536	4.11764717
458.59936523	4.23529434
458.60351563	4.29411745
458.60751343	4.31372547
458.60751343	4.27450991
458.61160278	4.29411745
458.61572266	4.29411745
458.61975098	4.27450991
458.62387085	4.25490189
458.62796021	4.29411745
458.62796021	4.31372547
458.63214111	4.33333349
458.63629150	4.33333349
458.64025879	4.33333349
458.64025879	4.29411745
458.64440918	4.31372547
458.64852905	4.33333349
458.65264893	4.35294104
458.65264893	4.35294104
458.65661621	4.35294104
458.66076660	4.33333349
458.66491699	4.29411745
458.66903687	4.29411745
458.67312622	4.31372547
458.67312622	4.29411745
458.67709351	4.29411745
458.68127441	4.25490189
458.68536377	4.21568632
458.68536377	4.23529434
458.68951416	4.27450991
458.69348145	4.29411745
458.69763184	4.25490189
458.69763184	4.23529434
458.70178223	4.05882359
458.70584106	2.90196085
458.70584106	2.90196085
458.70989990	2.88235283
458.71401978	2.88235283
458.71817017	2.88235283
458.71817017	2.90196085
458.72232056	2.90196085
458.72631836	2.90196085
458.73049927	2.88235283
458.73049927	2.88235283
458.73449707	2.88235283
458.73858643	2.90196085
458.74273682	2.88235283
458.74273682	2.90196085
458.74673462	2.90196085
458.75085449	2.88235283
458.75085449	2.88235283
458.75494385	2.90196085
458.75915527	2.88235283
458.76327515	2.90196085
458.76327515	2.90196085
458.76727295	2.88235283
458.77139282	2.86274505
458.77554321	2.86274505
458.77554321	2.84313726
458.77966309	2.88235283
458.78366089	2.90196085
458.78771973	2.88235283
458.78771973	2.86274505
458.79193115	3.43137264
458.79598999	4.33333349
458.79598999	4.31372547
458.79995728	4.29411745
458.80410767	4.29411745
458.80825806	4.29411745
458.80825806	4.29411745
458.81234741	4.31372547
458.81646729	4.29411745
458.82043457	4.29411745
458.82043457	4.25490189
458.82461548	4.23529434
458.82873535	4.23529434
458.83285522	4.25490189
458.83285522	4.25490189
458.83682251	4.21568632
458.84094238	3.66666675
458.84094238	2.90196085
458.84503174	2.90196085
458.84921265	2.90196085
458.85336304	2.90196085
458.85336304	2.90196085
458.85748291	2.88235283
458.86148071	2.86274505
458.86560059	2.90196085
458.86560059	2.90196085
458.86972046	2.88235283
458.87374878	2.86274505
458.87789917	2.90196085
458.88201904	2.90196085
458.88616943	2.90196085
458.88616943	2.88235283
458.89013672	4.31372547
458.89428711	4.23529434
458.89852905	4.13725471
458.89852905	2.90196085
458.90252686	2.88235283
458.90649414	4.35294104
458.91061401	4.39215708
458.91061401	4.35294104
458.91479492	4.29411745
458.91888428	4.29411745
458.92297363	4.19607830
458.92697144	4.09803915
458.93115234	4.11764717
458.93115234	4.23529434
458.93521118	4.21568632
458.93936157	2.86274505
458.94345093	2.88235283
458.94345093	2.88235283
458.94744873	2.88235283
458.95159912	2.88235283
458.95571899	2.90196085
458.95571899	2.90196085
458.95986938	2.90196085
458.96383667	2.86274505
458.96795654	4.31372547
458.97222900	4.25490189
458.97628784	4.19607830
458.97628784	4.29411745
458.98025513	4.33333349
458.98446655	4.33333349
458.98846436	4.31372547
458.98846436	4.31372547
458.99264526	4.29411745
458.99658203	4.31372547
459.00064087	4.31372547
459.00064087	4.29411745
459.00488281	4.29411745
459.00900269	4.29411745
459.01309204	4.33333349
459.01708984	4.31372547
459.02124023	4.29411745
459.02124023	4.29411745
459.02536011	4.29411745
459.02947998	4.31372547
459.03363037	4.35294104
459.03363037	4.33333349
459.03765869	4.29411745
459.04174805	4.19607830
459.04586792	2.90196085
459.04586792	3.11764717
459.04995728	4.39215708
459.05398560	4.35294104
459.05810547	4.29411745
459.06213379	4.33333349
459.06631470	4.35294104
459.06631470	4.37254906
459.07046509	4.37254906
459.07449341	4.35294104
459.07861328	4.35294104
459.07861328	4.37254906
459.08273315	4.39215708
459.08673096	4.39215708
459.09082031	4.37254906
459.09082031	4.35294104
459.09500122	4.29411745
459.09912109	4.29411745
459.10327148	4.41176462
459.10723877	4.37254906
459.11148071	4.39215708
459.11148071	4.41176462
459.11547852	4.39215708
459.11962891	4.37254906
459.12365723	4.33333349
459.12365723	4.33333349
459.12768555	4.33333349
459.13186646	4.37254906
459.13595581	4.37254906
459.13595581	4.33333349
459.14007568	4.33333349
459.14410400	4.37254906
459.14410400	4.35294104
459.14822388	4.37254906
459.15234375	4.39215708
459.15649414	4.37254906
459.15649414	4.35294104
459.16055298	4.35294104
459.16461182	4.35294104
459.16873169	4.29411745
459.16873169	4.33333349
459.17285156	4.35294104
459.17684937	4.37254906
459.18093872	4.35294104
459.18093872	4.35294104
459.18508911	4.31372547
459.18923950	4.35294104
459.18923950	4.37254906
459.19335938	4.35294104
459.19747925	4.33333349
459.20144653	4.35294104
459.20144653	4.33333349
459.20556641	4.33333349
459.20971680	4.35294104
459.21386719	4.37254906
459.21386719	4.37254906
459.21783447	4.37254906
459.22201538	4.37254906
459.22616577	4.39215708
459.22616577	4.37254906
459.23013306	4.41176462
459.23422241	4.41176462
459.23422241	4.39215708
459.23834229	4.37254906
459.24243164	4.37254906
459.24652100	4.37254906
459.24652100	4.37254906
459.25054932	4.39215708
459.25466919	4.37254906
459.25888062	4.35294104
459.25888062	4.33333349
459.26296997	4.33333349
459.26696777	4.39215708
459.27108765	4.41176462
459.27108765	4.35294104
459.27529907	4.37254906
459.27941895	4.39215708
459.27941895	4.39215708
459.28350830	4.37254906
459.28753662	4.35294104
459.29162598	4.39215708
459.29162598	4.41176462
459.29571533	4.41176462
459.29983521	4.39215708
459.30401611	4.39215708
459.30401611	4.39215708
459.30804443	4.37254906
459.31210327	4.39215708
459.31622314	4.39215708
459.31622314	4.39215708
459.32025146	4.39215708
459.32455444	4.37254906
459.32455444	4.37254906
459.32852173	4.39215708
459.33267212	4.39215708
459.33679199	4.39215708
459.33679199	4.35294104
459.34078979	4.33333349
459.34487915	4.33333349
459.34902954	4.35294104
459.34902954	4.37254906
459.35311890	4.37254906
459.35723877	4.37254906
459.36114502	4.31372547
459.36532593	4.33333349
459.36938477	4.35294104
459.36938477	4.39215708
459.37359619	4.37254906
459.37756348	4.33333349
459.38171387	4.33333349
459.38171387	4.37254906
459.38583374	4.37254906
459.38995361	4.35294104
459.39410400	4.37254906
459.39410400	4.39215708
459.39807129	4.37254906
459.40222168	4.35294104
459.40634155	4.35294104
459.41046143	4.39215708
459.41445923	4.39215708
459.41445923	4.37254906
459.41854858	4.33333349
459.42269897	4.29411745
459.42678833	4.33333349
459.42678833	4.35294104
459.43081665	4.35294104
459.43490601	4.39215708
459.43911743	4.39215708
459.43911743	4.37254906
459.44323730	4.23529434
459.44735718	4.29411745
459.45147705	4.39215708
459.45544434	4.37254906
459.45962524	4.37254906
459.45962524	4.33333349
459.46371460	4.29411745
459.46771240	4.33333349
459.47180176	4.37254906
459.47180176	4.37254906
459.47595215	4.37254906
459.48004150	4.31372547
459.48419189	4.29411745
459.48419189	4.33333349
459.48815918	4.35294104
459.49230957	4.35294104
459.49645996	4.33333349
459.50061035	4.29411745
459.50454712	4.27450991
459.50454712	4.25490189
459.50875854	4.29411745
459.51284790	4.35294104
459.51696777	4.35294104
459.51696777	4.31372547
459.52093506	4.25490189
459.52511597	4.31372547
459.52920532	4.33333349
459.52920532	4.31372547
459.53332520	4.33333349
459.53747559	4.39215708
459.54141235	4.25490189
459.54556274	4.25490189
459.54968262	4.37254906
459.54968262	4.41176462
459.55380249	4.39215708
459.55780029	4.37254906
459.56195068	4.31372547
459.56195068	4.29411745
459.56610107	4.29411745
459.57022095	4.33333349
459.57437134	4.37254906
459.57437134	4.39215708
459.57843018	4.35294104
459.58248901	4.27450991
459.58660889	4.29411745
459.59057617	4.33333349
459.59469604	4.35294104
459.59469604	4.33333349
459.59884644	4.35294104
459.60290527	4.25490189
459.60705566	4.23529434
459.60705566	4.27450991
459.61102295	4.31372547
459.61517334	4.35294104
459.61947632	4.33333349
459.61947632	4.31372547
459.62350464	4.21568632
459.62759399	4.21568632
459.62759399	4.29411745
459.63162231	4.29411745
459.63571167	4.31372547
459.63983154	4.29411745
459.63983154	4.23529434
459.64398193	4.23529434
459.64797974	4.21568632
459.65206909	4.29411745
459.65206909	4.35294104
459.65618896	4.29411745
459.66033936	3.39215684
459.66439819	2.90196085
459.66439819	2.90196085
459.66848755	2.90196085
459.67254639	3.45098042
459.67254639	4.31372547
459.67669678	4.23529434
459.68069458	3.66666675
459.68484497	2.90196085
459.68484497	2.90196085
459.68896484	2.90196085
459.69311523	2.88235283
459.69723511	2.88235283
459.69723511	2.88235283
459.70120239	2.90196085
459.70544434	2.90196085
459.70947266	2.90196085
459.70947266	2.88235283
459.71359253	3.17647052
459.71768188	4.29411745
459.71768188	4.21568632
459.72171021	4.17647076
459.72576904	2.90196085
459.72988892	2.90196085
459.72988892	2.86274505
459.73406982	2.86274505
459.73803711	3.39215684
459.74218750	4.29411745
459.74218750	2.90196085
459.74633789	2.90196085
459.75048828	2.88235283
459.75454712	3.49019599
459.75454712	4.31372547
459.75860596	4.27450991
459.76272583	4.23529434
459.76272583	4.13725471
459.76687622	2.90196085
459.77090454	2.88235283
459.77502441	3.29411769
459.77502441	4.29411745
459.77914429	4.33333349
459.78326416	3.88235283
459.78738403	2.90196085
459.78738403	2.88235283
459.79150391	3.17647052
459.79550171	4.31372547
459.79959106	4.23529434
459.79959106	4.25490189
459.80371094	3.90196085
459.80789185	2.90196085
459.80789185	2.86274505
459.81182861	3.27450991
459.81594849	4.35294104
459.82009888	4.29411745
459.82009888	4.21568632
459.82431030	2.90196085
459.82824707	4.31372547
459.83251953	4.43137264
459.83251953	4.35294104
459.83651733	4.27450991
459.84066772	4.29411745
459.84463501	4.27450991
459.84875488	4.29411745
459.85290527	4.35294104
459.85290527	2.90196085
459.85699463	4.39215708
459.86099243	4.27450991
459.86508179	2.90196085
459.86508179	2.96078420
459.86923218	4.41176462
459.87335205	4.21568632
459.87747192	2.90196085
459.87747192	3.17647052
459.88146973	4.33333349
459.88562012	4.15686274
459.88970947	4.31372547
459.89385986	4.31372547
459.89797974	4.17647076
459.89797974	4.31372547
459.90194702	3.05882359
459.90606689	2.90196085
459.91018677	3.84313726
459.91018677	4.29411745
459.91433716	2.88235283
459.91839600	4.45098019
459.92239380	3.76470590
459.92239380	2.90196085
459.92657471	2.90196085
459.93063354	2.90196085
459.93469238	4.37254906
459.93884277	4.27450991
459.94296265	2.90196085
459.94296265	2.90196085
459.94711304	2.86274505
459.95111084	4.45098019
459.95516968	4.17647076
459.95516968	4.29411745
459.95935059	3.41176462
459.96347046	2.84313726
459.96759033	4.35294104
459.96759033	4.27450991
459.97155762	2.90196085
459.97570801	3.03921580
459.97988892	4.19607830
459.98394775	2.90196085
459.98806763	2.90196085
459.98806763	2.88235283
459.99215698	4.23529434
459.99621582	4.37254906
460.00033569	3.96078420
460.00033569	2.90196085
460.00448608	2.86274505
460.00848389	2.90196085
460.01263428	4.37254906
460.01263428	4.37254906
460.01678467	4.23529434
460.02090454	2.90196085
460.02490234	2.90196085
460.02902222	2.90196085
460.03314209	4.29411745
460.03314209	4.43137264
460.03726196	4.23529434
460.04129028	4.37254906
460.04547119	4.25490189
460.04547119	4.17647076
460.04949951	2.90196085
460.05358887	2.90196085
460.05773926	4.45098019
460.05773926	4.15686274
460.06173706	2.90196085
460.06585693	2.96078420
460.06991577	2.90196085
460.07409668	3.19607854
460.07821655	3.13725495
460.07821655	4.27450991
460.08218384	4.23529434
460.08633423	3.66666675
460.09048462	2.90196085
460.09048462	4.43137264
460.09445190	4.35294104
460.09857178	4.41176462
460.10275269	4.31372547
460.10275269	4.41176462
460.10690308	4.43137264
460.11096191	3.47058821
460.11096191	3.33333325
460.11495972	4.41176462
460.11907959	4.39215708
460.12326050	4.29411745
460.12326050	4.31372547
460.12725830	4.35294104
460.13140869	4.39215708
460.13543701	4.37254906
460.13543701	4.39215708
460.13958740	4.37254906
460.14370728	4.29411745
460.14785767	4.23529434
460.14785767	4.31372547
460.15182495	4.23529434
460.15594482	4.33333349
460.15594482	4.39215708
460.16009521	4.31372547
460.16424561	4.15686274
460.16851807	4.23529434
460.16851807	4.33333349
460.17251587	4.35294104
460.17645264	4.31372547
460.18063354	4.31372547
460.18063354	4.27450991
460.18457031	4.23529434
460.18869019	4.35294104
460.19274902	4.37254906
460.19274902	4.31372547
460.19692993	4.31372547
460.20108032	4.31372547
460.20108032	4.29411745
460.20507813	4.29411745
460.20922852	4.35294104
460.21331787	4.37254906
460.21331787	4.37254906
460.21746826	4.37254906
460.22140503	4.33333349
460.22555542	4.31372547
460.22555542	4.33333349
460.22970581	4.37254906
460.23376465	4.41176462
460.23788452	4.39215708
460.23788452	4.37254906
460.24194336	4.31372547
460.24603271	4.37254906
460.24603271	4.39215708
460.25018311	4.39215708
460.25433350	4.41176462
460.25848389	4.41176462
460.25848389	4.39215708
460.26245117	4.33333349
460.26657104	4.33333349
460.27072144	4.39215708
460.27072144	4.39215708
460.27478027	4.39215708
460.27883911	4.39215708
460.28302002	4.41176462
460.28302002	4.37254906
460.28710938	4.31372547
460.29119873	4.35294104
460.29119873	4.37254906
460.29519653	4.39215708
460.29949951	4.37254906
460.30343628	4.33333349
460.30343628	4.31372547
460.30752563	4.35294104
460.31155396	4.39215708
460.31567383	4.39215708
460.31567383	4.35294104
460.31982422	4.35294104
460.32397461	4.35294104
460.32809448	4.37254906
460.33206177	4.39215708
460.33618164	4.39215708
460.33618164	4.35294104
460.34027100	4.33333349
460.34445190	4.33333349
460.34863281	4.37254906
460.34863281	4.39215708
460.35260010	4.41176462
460.35678101	4.41176462
460.36087036	4.37254906
460.36087036	4.35294104
460.36483765	4.35294104
460.36895752	4.37254906
460.37304688	4.43137264
460.37716675	4.39215708
460.38134766	4.37254906
460.38134766	4.35294104
460.38546753	4.37254906
460.38943481	4.39215708
460.39358521	4.41176462
460.39358521	4.41176462
460.39770508	4.41176462
460.40170288	4.31372547
460.40582275	4.35294104
460.40582275	4.41176462
460.40994263	4.43137264
460.41406250	4.41176462
460.41815186	4.37254906
460.42214966	4.35294104
460.42639160	4.31372547
460.42639160	4.39215708
460.43041992	4.39215708
460.43460083	4.41176462
460.43872070	4.39215708
460.43872070	4.37254906
460.44268799	4.35294104
460.44683838	4.37254906
460.45095825	4.39215708
460.45095825	4.39215708
460.45489502	4.37254906
460.45907593	4.41176462
460.46328735	4.33333349
460.46734619	4.37254906
460.47152710	4.41176462
460.47152710	4.41176462
460.47549438	4.41176462
460.47958374	4.39215708
460.48370361	4.37254906
460.48370361	4.37254906
460.48782349	4.41176462
460.49176025	4.41176462
460.49594116	4.39215708
460.49594116	4.43137264
460.50006104	4.41176462
460.50421143	4.37254906
460.50836182	4.39215708
460.51245117	4.43137264
460.51644897	4.43137264
460.51644897	4.39215708
460.52062988	4.35294104
460.52478027	4.39215708
460.52877808	4.39215708
460.52877808	4.39215708
460.53289795	4.41176462
460.53698730	4.39215708
460.54113770	4.37254906
460.54113770	4.35294104
460.54507446	4.31372547
460.54922485	4.35294104
460.55334473	4.41176462
460.55749512	4.39215708
460.56158447	4.29411745
460.56158447	4.31372547
460.56558228	4.37254906
460.56970215	4.39215708
460.57385254	4.39215708
460.57385254	4.39215708
460.57803345	4.33333349
460.58200073	4.37254906
460.58615112	4.35294104
460.58615112	4.33333349
460.59020996	4.41176462
460.59436035	4.41176462
460.59436035	4.39215708
460.59851074	4.37254906
460.60250854	4.35294104
460.60659790	4.35294104
460.60659790	4.35294104
460.61071777	4.37254906
460.61480713	4.35294104
460.61898804	4.33333349
460.61898804	4.29411745
460.62298584	4.31372547
460.62707520	4.33333349
460.63119507	4.33333349
460.63119507	4.31372547
460.63522339	4.31372547
460.63946533	4.25490189
460.63946533	4.09803915
460.64346313	3.84313726
460.64758301	4.31372547
460.65170288	4.29411745
460.65170288	4.27450991
460.65570068	4.15686274
460.65985107	2.88235283
460.66394043	2.88235283
460.66394043	2.88235283
460.66809082	2.88235283
460.67208862	2.88235283
460.67620850	2.88235283
460.67620850	2.84313726
460.68035889	2.88235283
460.68447876	2.88235283
460.68447876	2.88235283
460.68844604	2.88235283
460.69256592	2.86274505
460.69668579	2.90196085
460.69668579	2.88235283
460.70083618	2.88235283
460.70492554	2.88235283
460.70910645	2.88235283
460.70910645	2.88235283
460.71307373	2.88235283
460.71719360	2.88235283
460.72128296	2.86274505
460.72128296	2.88235283
460.72546387	2.88235283
460.72949219	2.86274505
460.72949219	2.84313726
460.73358154	2.86274505
460.73770142	2.84313726
460.74185181	2.88235283
460.74185181	2.88235283
460.74588013	2.88235283
460.74996948	2.88235283
460.75408936	2.88235283
460.75408936	2.88235283
460.75817871	2.86274505
460.76232910	4.31372547
460.76644897	4.21568632
460.77044678	2.88235283
460.77459717	2.88235283
460.77459717	3.05882359
460.77856445	4.31372547
460.78268433	4.19607830
460.78686523	4.23529434
460.78686523	4.29411745
460.79098511	4.27450991
460.79513550	4.21568632
460.79922485	4.07843161
460.79922485	2.88235283
460.80319214	2.88235283
460.80731201	2.88235283
460.81149292	2.86274505
460.81546021	2.86274505
460.81951904	2.88235283
460.81951904	2.88235283
460.82373047	2.82352948
460.82781982	3.05882359
460.83197021	4.29411745
460.83197021	4.29411745
460.83593750	4.25490189
460.84005737	4.25490189
460.84420776	4.21568632
460.84420776	3.86274505
460.84835815	2.88235283
460.85244751	2.86274505
460.85653687	2.84313726
460.86056519	2.88235283
460.86471558	2.86274505
460.86471558	2.86274505
460.86868286	2.84313726
460.87286377	2.86274505
460.87695313	2.86274505
460.87695313	2.86274505
460.88098145	2.86274505
460.88516235	2.88235283
460.88919067	2.86274505
460.88919067	3.19607854
460.89346313	4.39215708
460.89743042	4.37254906
460.90158081	4.31372547
460.90554810	4.35294104
460.90969849	4.41176462
460.90969849	4.41176462
460.91387939	4.39215708
460.91802979	4.39215708
460.92211914	4.39215708
460.92211914	4.39215708
460.92608643	4.39215708
460.93020630	4.41176462
460.93438721	4.39215708
460.93438721	4.39215708
460.93838501	4.39215708
460.94241333	4.39215708
460.94656372	4.39215708
460.95071411	4.39215708
460.95477295	4.39215708
460.95477295	4.37254906
460.95883179	4.37254906
460.96292114	4.37254906
460.96707153	4.37254906
460.96707153	4.37254906
460.97119141	4.37254906
460.97537231	4.37254906
460.97949219	4.35294104
460.97949219	4.35294104
460.98345947	4.33333349
460.98757935	4.33333349
460.99169922	4.35294104
460.99572754	4.37254906
460.99975586	4.37254906
460.99975586	4.35294104
461.00390625	4.37254906
461.00808716	4.39215708
461.01220703	4.39215708
461.01220703	4.39215708
461.01617432	4.39215708
461.02032471	4.39215708
461.02447510	4.39215708
461.02447510	4.39215708
461.02859497	4.39215708
461.03256226	4.41176462
461.03671265	4.39215708
461.04083252	4.39215708
461.04501343	4.39215708
461.04501343	4.41176462
461.04895020	4.41176462
461.05307007	4.41176462
461.05712891	4.39215708
461.05712891	4.39215708
461.06127930	4.39215708
461.06539917	4.39215708
461.06939697	4.39215708
461.06939697	4.41176462
461.07360840	4.41176462
461.07769775	4.39215708
461.07769775	4.39215708
461.08181763	4.39215708
461.08581543	4.39215708
461.08993530	4.39215708
461.08993530	4.41176462
461.09405518	4.39215708
461.09820557	4.39215708
461.10235596	4.37254906
461.10235596	4.37254906
461.10653687	4.37254906
461.11047363	4.39215708
461.11459351	4.41176462
461.11459351	4.39215708
461.11862183	4.37254906
461.12277222	4.35294104
461.12277222	4.35294104
461.12673950	4.35294104
461.13095093	4.31372547
461.13507080	4.31372547
461.13507080	4.29411745
461.13903809	4.27450991
461.14318848	4.23529434
461.14746094	4.25490189
461.14746094	4.27450991
461.15145874	4.29411745
461.15554810	4.23529434
461.15957642	3.45098042
461.15957642	2.90196085
461.16363525	2.88235283
461.16778564	2.90196085
461.16778564	2.90196085
461.17184448	2.90196085
461.17590332	2.90196085
461.18002319	2.88235283
461.18002319	4.37254906
461.18417358	4.35294104
461.18832397	4.25490189
461.19247437	4.05882359
461.19247437	2.90196085
461.19644165	2.90196085
461.20059204	2.90196085
461.20465088	2.88235283
461.20465088	2.90196085
461.20889282	2.98039222
461.21301270	4.37254906
461.21301270	4.31372547
461.21701050	4.23529434
461.22113037	4.19607830
461.22525024	2.90196085
461.22525024	2.90196085
461.22924805	2.90196085
461.23348999	2.90196085
461.23745728	2.90196085
461.23745728	2.90196085
461.24157715	2.90196085
461.24575806	2.90196085
461.24975586	2.90196085
461.24975586	2.90196085
461.25381470	2.90196085
461.25796509	2.90196085
461.25796509	2.90196085
461.26211548	3.29411769
461.26611328	4.31372547
461.27023315	4.23529434
461.27023315	2.90196085
461.27441406	2.90196085
461.27850342	2.90196085
461.28265381	2.90196085
461.28265381	2.90196085
461.28662109	2.90196085
461.29077148	2.90196085
461.29486084	2.90196085
461.29898071	2.90196085
461.30307007	2.90196085
461.30307007	2.90196085
461.30706787	2.90196085
461.31124878	2.90196085
461.31530762	2.90196085
461.31530762	2.90196085
461.31942749	2.90196085
461.32348633	2.90196085
461.32760620	3.00000000
461.32760620	4.37254906
461.33175659	4.37254906
461.33590698	4.31372547
461.33984375	4.31372547
461.34399414	4.33333349
461.34811401	4.29411745
461.34811401	4.29411745
461.35223389	4.31372547
461.35623169	4.35294104
461.36041260	4.35294104
461.36041260	4.35294104
461.36441040	4.31372547
461.36856079	4.25490189
461.37274170	4.27450991
461.37274170	4.37254906
461.37667847	4.41176462
461.38079834	4.39215708
461.38494873	4.37254906
461.38906860	4.39215708
461.39309692	4.35294104
461.39309692	4.29411745
461.39718628	4.29411745
461.40130615	4.35294104
461.40539551	4.41176462
461.40539551	4.43137264
461.40945435	4.41176462
461.41351318	4.41176462
461.41772461	4.39215708
461.41772461	4.39215708
461.42184448	4.37254906
461.42593384	4.33333349
461.42993164	4.39215708
461.43411255	4.43137264
461.43820190	4.43137264
461.43820190	4.39215708
461.44232178	4.35294104
461.44647217	4.37254906
461.45046997	4.37254906
461.45046997	4.39215708
461.45458984	4.39215708
461.45877075	4.37254906
461.46289063	4.37254906
461.46289063	4.35294104
461.46685791	4.33333349
461.47100830	4.33333349
461.47515869	4.39215708
461.47921753	4.33333349
461.48330688	4.33333349
461.48330688	4.35294104
461.48748779	4.41176462
461.49145508	4.41176462
461.49554443	4.37254906
461.49554443	4.37254906
461.49957275	4.27450991
461.50375366	4.29411745
461.50790405	4.39215708
461.50790405	4.43137264
461.51199341	4.37254906
461.51611328	4.31372547
461.52011108	4.29411745
461.52426147	4.33333349
461.52838135	4.35294104
461.52838135	4.33333349
461.53250122	4.37254906
461.53649902	4.39215708
461.54058838	4.37254906
461.54058838	4.35294104
461.54473877	4.37254906
461.54882813	4.37254906
461.55294800	4.39215708
461.55294800	4.37254906
461.55694580	4.35294104
461.56109619	4.35294104
461.56109619	4.35294104
461.56518555	4.35294104
461.56924438	4.37254906
461.57348633	4.41176462
461.57348633	4.39215708
461.57745361	4.35294104
461.58154297	4.33333349
461.58569336	4.35294104
461.58569336	4.39215708
461.58969116	4.39215708
461.59381104	4.39215708
461.59790039	4.35294104
461.59790039	4.29411745
461.60211182	4.33333349
461.60626221	4.39215708
461.60626221	4.37254906
461.61019897	4.33333349
461.61431885	4.27450991
461.61843872	4.29411745
461.61843872	4.39215708
461.62261963	4.39215708
461.62646484	4.33333349
461.63064575	4.33333349
461.63064575	4.35294104
461.63482666	4.37254906
461.63894653	4.37254906
461.64306641	4.33333349
461.64306641	4.35294104
461.64703369	4.33333349
461.65118408	4.31372547
461.65118408	4.37254906
461.65527344	4.39215708
461.65945435	4.35294104
461.66360474	4.33333349
461.66360474	4.31372547
461.66763306	4.31372547
461.67172241	4.37254906
461.67581177	4.37254906
461.67581177	4.39215708
461.67977905	4.31372547
461.68395996	4.31372547
461.68811035	4.37254906
461.68811035	4.39215708
461.69223022	4.39215708
461.69631958	4.39215708
461.69631958	4.33333349
461.70046997	4.25490189
461.70462036	4.37254906
461.70864868	4.37254906
461.70864868	4.39215708
461.71273804	4.43137264
461.71673584	4.39215708
461.72085571	4.37254906
461.72085571	4.37254906
461.72500610	4.37254906
461.72912598	4.37254906
461.73321533	4.37254906
461.73321533	4.43137264
461.73721313	4.43137264
461.74142456	4.39215708
461.74142456	4.35294104
461.74548340	4.41176462
461.74948120	4.41176462
461.75350952	4.43137264
461.75350952	4.43137264
461.75769043	4.43137264
461.76181030	4.35294104
461.76593018	4.37254906
461.76593018	4.39215708
461.76992798	4.39215708
461.77404785	4.41176462
461.77816772	4.41176462
461.78231812	4.41176462
461.78646851	4.35294104
461.78646851	4.39215708
461.79043579	4.43137264
461.79461670	4.43137264
461.79873657	4.39215708
461.79873657	4.33333349
461.80282593	4.19607830
461.80673218	4.37254906
461.81091309	4.41176462
461.81091309	4.41176462
461.81503296	4.39215708
461.81912231	4.33333349
461.82333374	4.35294104
461.82745361	2.90196085
461.83142090	2.88235283
461.83142090	4.45098019
461.83557129	4.37254906
461.83966064	4.27450991
461.84368896	2.90196085
461.84368896	2.90196085
461.84780884	2.90196085
461.85189819	3.07843137
461.85604858	4.27450991
461.85604858	4.21568632
461.85998535	2.90196085
461.86413574	2.92156863
461.86822510	2.90196085
461.87243652	2.90196085
461.87655640	2.90196085
461.87655640	2.92156863
461.88052368	2.92156863
461.88470459	2.92156863
461.88876343	2.92156863
461.88876343	2.92156863
461.89294434	2.92156863
461.89691162	2.92156863
461.90103149	2.92156863
461.90103149	2.92156863
461.90524292	2.92156863
461.90936279	2.92156863
461.91348267	2.84313726
461.91744995	4.43137264
461.92156982	4.43137264
461.92156982	4.45098019
461.92575073	4.47058821
461.92971802	4.47058821
461.93377686	4.49019623
461.93377686	4.49019623
461.93786621	4.47058821
461.94207764	4.47058821
461.94616699	4.45098019
461.94616699	4.47058821
461.95016479	4.47058821
461.95446777	4.47058821
461.95846558	4.47058821
461.96261597	4.47058821
461.96676636	4.45098019
461.96676636	4.43137264
461.97073364	4.47058821
461.97485352	4.45098019
461.97897339	4.45098019
461.97897339	4.45098019
461.98312378	4.41176462
461.98709106	4.41176462
461.99121094	4.47058821
461.99121094	4.43137264
461.99530029	4.45098019
461.99945068	4.45098019
462.00344849	4.37254906
462.00756836	4.39215708
462.01168823	4.41176462
462.01168823	4.47058821
462.01583862	4.45098019
462.01998901	4.37254906
462.02398682	4.31372547
462.02398682	4.41176462
462.02810669	4.43137264
462.03225708	4.45098019
462.03637695	4.31372547
462.03637695	4.47058821
462.04046631	4.47058821
462.04449463	4.39215708
462.04449463	4.37254906
462.04861450	4.37254906
462.05273438	4.39215708
462.05682373	4.45098019
462.05682373	4.43137264
462.06079102	4.39215708
462.06500244	4.43137264
462.06909180	4.35294104
462.06909180	4.39215708
462.07321167	4.45098019
462.07714844	4.45098019
462.08139038	4.43137264
462.08139038	2.88235283
462.08541870	3.52941179
462.08956909	4.47058821
462.08956909	4.47058821
462.09356689	4.43137264
462.09765625	4.45098019
462.10180664	4.43137264
462.10180664	4.39215708
462.10592651	4.41176462
462.11010742	4.45098019
462.11407471	4.45098019
462.11407471	4.45098019
462.11819458	4.45098019
462.12228394	4.45098019
462.12643433	4.35294104
462.12643433	4.45098019
462.13037109	4.43137264
462.13455200	4.45098019
462.13455200	4.45098019
462.13867188	4.45098019
462.14282227	4.45098019
462.14694214	4.45098019
462.14694214	4.45098019
462.15090942	4.45098019
462.15496826	4.45098019
462.15917969	4.45098019
462.15917969	4.45098019
462.16329956	4.43137264
462.16748047	4.43137264
462.17147827	4.43137264
462.17147827	4.43137264
462.17559814	4.43137264
462.17971802	4.43137264
462.17971802	4.43137264
462.18368530	4.43137264
462.18792725	4.43137264
462.19195557	4.43137264
462.19195557	4.43137264
462.19607544	4.09803915
462.20013428	2.88235283
462.20416260	4.39215708
462.20416260	2.88235283
462.20846558	2.90196085
462.21243286	4.43137264
462.21655273	4.31372547
462.21655273	3.35294127
462.22052002	2.88235283
462.22467041	2.88235283
462.22467041	3.45098042
462.22885132	4.29411745
462.23300171	4.15686274
462.23712158	2.88235283
462.23712158	4.43137264
462.24108887	2.88235283
462.24523926	2.88235283
462.24938965	2.88235283
462.24938965	2.88235283
462.25347900	2.88235283
462.25744629	2.88235283
462.26156616	2.88235283
462.26571655	2.88235283
462.26983643	2.88235283
462.26983643	2.88235283
462.27383423	2.88235283
462.27792358	2.88235283
462.28210449	2.88235283
462.28210449	2.88235283
462.28625488	2.88235283
462.29022217	2.88235283
462.29449463	2.88235283
462.29449463	2.88235283
462.29846191	2.88235283
462.30258179	2.88235283
462.30670166	2.88235283
462.31066895	2.88235283
462.31478882	2.86274505
462.31478882	2.86274505
462.31890869	2.88235283
462.32302856	2.88235283
462.32717896	2.86274505
462.32717896	2.88235283
462.33117676	2.88235283
462.33532715	4.33333349
462.33944702	4.27450991
462.33944702	4.09803915
462.34356689	2.88235283
462.34756470	2.88235283
462.35165405	2.86274505
462.35583496	4.41176462
462.35998535	4.25490189
462.35998535	2.88235283
462.36392212	2.88235283
462.36801147	2.88235283
462.37216187	3.29411769
462.37216187	4.31372547
462.37628174	4.35294104
462.38037109	4.35294104
462.38439941	2.88235283
462.38439941	2.88235283
462.38858032	2.88235283
462.39270020	2.84313726
462.39682007	4.33333349
462.40078735	4.23529434
462.40490723	2.88235283
462.40490723	2.86274505
462.40905762	3.21568632
462.41320801	4.39215708
462.41732788	4.39215708
462.41732788	4.35294104
462.42144775	4.31372547
462.42547607	4.31372547
462.42956543	4.35294104
462.42956543	4.41176462
462.43371582	4.41176462
462.43759155	4.39215708
462.44177246	4.31372547
462.44589233	4.31372547
462.45007324	4.37254906
462.45007324	4.41176462
462.45404053	4.31372547
462.45819092	4.41176462
462.46231079	4.35294104
462.46231079	4.29411745
462.46643066	4.31372547
462.47042847	4.37254906
462.47454834	4.39215708
462.47454834	4.39215708
462.47869873	4.37254906
462.48275757	4.37254906
462.48690796	4.37254906
462.49084473	4.45098019
462.49502563	4.43137264
462.49502563	4.41176462
462.49917603	4.37254906
462.50332642	4.33333349
462.50753784	4.31372547
462.50753784	4.37254906
462.51150513	4.43137264
462.51559448	4.41176462
462.51974487	4.39215708
462.51974487	4.39215708
462.52389526	4.33333349
462.52786255	4.35294104
462.52786255	4.39215708
462.53198242	4.43137264
462.53610229	4.41176462
462.54025269	4.39215708
462.54025269	4.33333349
462.54418945	4.33333349
462.54843140	4.35294104
462.55245972	4.35294104
462.55245972	4.43137264
462.55654907	4.43137264
462.56054688	4.37254906
462.56466675	4.31372547
462.56466675	4.35294104
462.56884766	4.39215708
462.57299805	4.39215708
462.57299805	4.41176462
462.57705688	4.35294104
462.58105469	4.31372547
462.58523560	2.88235283
462.58523560	4.39215708
462.58932495	4.43137264
462.59353638	4.39215708
462.59762573	4.41176462
462.59762573	4.39215708
462.60159302	4.33333349
462.60568237	4.35294104
462.60986328	4.33333349
462.60986328	4.39215708
462.61410522	4.43137264
462.61795044	4.39215708
462.61795044	4.35294104
462.62210083	4.33333349
462.62612915	4.35294104
462.63034058	4.37254906
462.63034058	4.39215708
462.63442993	4.39215708
462.63836670	4.25490189
462.64266968	4.29411745
462.64266968	4.33333349
462.64663696	4.31372547
462.65063477	4.33333349
462.65475464	4.31372547
462.65475464	4.29411745
462.65893555	4.33333349
462.66302490	4.07843161
462.66302490	2.88235283
462.66711426	3.43137264
462.67111206	4.37254906
462.67541504	4.33333349
462.67541504	4.31372547
462.67932129	4.31372547
462.68347168	4.27450991
462.68762207	4.25490189
462.68762207	4.31372547
462.69168091	4.33333349
462.69570923	4.31372547
462.69989014	4.17647076
462.70404053	4.25490189
462.70806885	4.31372547
462.70806885	4.33333349
462.71215820	4.35294104
462.71630859	4.31372547
462.72036743	4.25490189
462.72036743	3.56862736
462.72442627	2.88235283
462.72854614	2.88235283
462.73269653	2.88235283
462.73269653	4.37254906
462.73681641	4.31372547
462.74099731	4.23529434
462.74496460	2.88235283
462.74908447	2.84313726
462.75317383	2.88235283
462.75317383	2.84313726
462.75732422	4.19607830
462.76144409	4.33333349
462.76544189	4.25490189
462.76544189	4.29411745
462.76950073	4.31372547
462.77371216	4.29411745
462.77783203	4.27450991
462.77783203	4.25490189
462.78179932	4.27450991
462.78591919	4.27450991
462.79003906	4.25490189
462.79418945	4.25490189
462.79821777	4.27450991
462.79821777	4.19607830
462.80242920	2.88235283
462.80648804	2.88235283
462.81057739	2.88235283
462.81057739	2.86274505
462.81454468	3.54901958
462.81866455	4.31372547
462.82284546	4.17647076
462.82284546	4.23529434
462.82684326	4.25490189
462.83096313	4.31372547
462.83502197	4.31372547
462.83917236	4.25490189
462.84332275	4.19607830
462.84332275	4.25490189
462.84741211	4.23529434
462.85140991	4.25490189
462.85552979	4.01960802
462.85552979	2.88235283
462.85971069	2.82352948
462.86383057	3.88235283
462.86798096	4.31372547
462.86798096	4.31372547
462.87194824	4.31372547
462.87606812	4.21568632
462.88015747	2.88235283
462.88436890	3.00000000
462.88842773	4.35294104
462.88842773	4.37254906
462.89233398	4.31372547
462.89651489	4.31372547
462.90069580	4.25490189
462.90069580	4.31372547
462.90463257	4.33333349
462.90881348	4.33333349
462.91290283	4.31372547
462.91290283	4.31372547
462.91705322	4.31372547
462.92120361	4.29411745
462.92523193	4.31372547
462.92935181	4.31372547
462.93347168	4.31372547
462.93347168	4.29411745
462.93756104	4.31372547
462.94155884	4.33333349
462.94573975	4.31372547
462.94573975	4.31372547
462.94970703	4.35294104
462.95388794	4.35294104
462.95806885	4.35294104
462.95806885	4.35294104
462.96203613	4.37254906
462.96618652	4.35294104
462.97027588	4.35294104
462.97442627	4.31372547
462.97842407	4.33333349
462.97842407	4.37254906
462.98257446	4.35294104
462.98672485	4.31372547
462.99081421	4.33333349
462.99081421	4.31372547
462.99487305	4.29411745
462.99893188	4.29411745
463.00305176	4.33333349
463.00305176	4.33333349
463.00714111	4.35294104
463.01123047	4.37254906
463.01123047	4.35294104
463.01538086	4.35294104
463.01934814	4.31372547
463.02355957	4.31372547
463.02355957	4.31372547
463.02767944	4.35294104
463.03164673	4.37254906
463.03576660	4.37254906
463.03576660	4.35294104
463.03991699	4.33333349
463.04403687	4.29411745
463.04815674	4.29411745
463.04815674	4.31372547
463.05212402	4.31372547
463.05642700	4.29411745
463.05642700	4.25490189
463.06033325	4.17647076
463.06451416	3.17647052
463.06845093	2.90196085
463.06845093	2.90196085
463.07266235	2.90196085
463.07678223	2.90196085
463.08093262	2.90196085
463.08093262	2.90196085
463.08489990	2.90196085
463.08901978	2.88235283
463.09317017	2.84313726
463.09317017	4.35294104
463.09729004	4.43137264
463.10144043	4.25490189
463.10144043	3.37254906
463.10546875	2.90196085
463.10961914	2.90196085
463.11373901	3.15686274
463.11373901	4.39215708
463.11785889	4.41176462
463.12182617	4.41176462
463.12597656	4.43137264
463.12597656	4.43137264
463.13006592	4.43137264
463.13415527	4.43137264
463.13824463	4.45098019
463.13824463	4.45098019
463.14242554	4.45098019
463.14642334	4.45098019
463.14642334	4.45098019
463.15054321	4.45098019
463.15451050	4.45098019
463.15869141	4.45098019
463.15869141	4.45098019
463.16284180	4.45098019
463.16696167	4.47058821
463.17105103	4.45098019
463.17105103	4.45098019
463.17504883	4.45098019
463.17916870	4.45098019
463.18328857	4.45098019
463.18737793	4.45098019
463.19149780	4.45098019
463.19149780	4.43137264
463.19552612	4.43137264
463.19961548	4.43137264
463.20376587	4.43137264
463.20376587	4.43137264
463.20797729	4.43137264
463.21194458	4.41176462
463.21603394	4.39215708
463.21603394	4.39215708
463.22018433	4.41176462
463.22433472	4.41176462
463.22842407	4.39215708
463.23242188	4.37254906
463.23657227	4.35294104
463.23657227	4.37254906
463.24069214	4.37254906
463.24465942	4.37254906
463.24887085	4.37254906
463.24887085	4.33333349
463.25292969	4.31372547
463.25704956	4.29411745
463.26116943	4.29411745
463.26116943	4.33333349
463.26522827	4.33333349
463.26947021	4.35294104
463.27343750	4.25490189
463.27749634	4.27450991
463.28167725	4.31372547
463.28167725	4.29411745
463.28564453	4.23529434
463.28976440	4.01960802
463.29391479	2.90196085
463.29391479	2.88235283
463.29806519	3.29411769
463.30203247	4.37254906
463.30615234	4.33333349
463.30615234	4.33333349
463.31036377	4.29411745
463.31445313	4.23529434
463.31845093	2.90196085
463.32254028	3.29411769
463.32666016	4.41176462
463.32666016	4.37254906
463.33081055	4.31372547
463.33480835	4.37254906
463.33886719	4.35294104
463.33886719	4.37254906
463.34301758	4.37254906
463.34716797	4.35294104
463.35128784	4.33333349
463.35128784	4.29411745
463.35540771	4.27450991
463.35943604	4.29411745
463.36355591	4.43137264
463.36767578	4.41176462
463.37185669	4.37254906
463.37185669	4.29411745
463.37585449	4.21568632
463.37994385	3.09803915
463.38406372	3.49019599
463.38406372	4.41176462
463.38815308	4.37254906
463.39224243	4.37254906
463.39633179	4.35294104
463.39633179	4.31372547
463.40036011	4.25490189
463.40441895	4.31372547
463.40853882	4.41176462
463.41265869	4.35294104
463.41680908	4.39215708
463.41680908	4.45098019
463.42092896	4.45098019
463.42492676	4.45098019
463.42904663	4.43137264
463.42904663	4.43137264
463.43319702	4.43137264
463.43731689	4.43137264
463.44146729	4.43137264
463.44146729	4.43137264
463.44543457	4.43137264
463.44952393	4.43137264
463.45370483	4.43137264
463.45773315	4.43137264
463.46185303	4.43137264
463.46185303	4.43137264
463.46591187	4.43137264
463.47003174	4.43137264
463.47418213	4.43137264
463.47418213	4.43137264
463.47830200	4.43137264
463.48242188	4.43137264
463.48638916	4.41176462
463.48638916	4.41176462
463.49057007	4.41176462
463.49468994	4.41176462
463.49468994	4.41176462
463.49871826	4.31372547
463.50283813	2.92156863
463.50695801	2.92156863
463.50695801	2.92156863
463.51107788	2.92156863
463.51504517	2.92156863
463.51913452	2.92156863
463.51913452	2.92156863
463.52334595	2.92156863
463.52740479	2.92156863
463.53155518	2.92156863
463.53155518	2.92156863
463.53552246	2.92156863
463.53967285	2.92156863
463.53967285	2.92156863
463.54379272	2.92156863
463.54791260	2.92156863
463.55203247	2.92156863
463.55203247	2.92156863
463.55603027	2.92156863
463.56021118	2.92156863
463.56433105	2.92156863
463.56433105	2.92156863
463.56845093	2.92156863
463.57244873	2.92156863
463.57656860	2.92156863
463.57656860	2.92156863
463.58062744	2.92156863
463.58468628	2.92156863
463.58468628	2.92156863
463.58880615	2.92156863
463.59292603	2.92156863
463.59704590	2.92156863
463.59704590	2.92156863
463.60116577	2.92156863
463.60510254	2.92156863
463.60943604	2.92156863
463.60943604	2.92156863
463.61340332	2.92156863
463.61752319	2.92156863
463.62161255	2.92156863
463.62161255	2.92156863
463.62564087	2.92156863
463.62969971	2.92156863
463.62969971	2.92156863
463.63388062	2.92156863
463.63793945	2.92156863
463.64215088	2.90196085
463.64215088	2.90196085
463.64614868	2.90196085
463.65026855	2.90196085
463.65444946	2.90196085
463.65444946	2.90196085
463.65844727	2.90196085
463.66253662	2.90196085
463.66668701	3.05882359
463.67080688	2.90196085
463.67498779	3.05882359
463.67498779	4.37254906
463.67895508	4.35294104
463.68307495	4.31372547
463.68722534	4.41176462
463.68722534	4.43137264
463.69134521	4.41176462
463.69543457	4.41176462
463.69943237	4.41176462
463.69943237	4.41176462
463.70355225	4.43137264
463.70767212	4.45098019
463.71182251	4.45098019
463.71578979	4.45098019
463.71990967	4.45098019
463.71990967	4.47058821
463.72409058	4.47058821
463.72824097	4.47058821
463.73236084	4.45098019
463.73236084	4.45098019
463.73648071	4.47058821
463.74044800	4.47058821
463.74459839	4.47058821
463.74459839	4.47058821
463.74859619	4.47058821
463.75271606	4.45098019
463.75683594	4.47058821
463.76095581	4.47058821
463.76507568	4.47058821
463.76507568	4.47058821
463.76904297	4.47058821
463.77319336	4.47058821
463.77746582	4.47058821
463.77746582	4.47058821
463.78143311	4.49019623
463.78540039	4.49019623
463.78952026	4.47058821
463.78952026	4.49019623
463.79364014	4.47058821
463.79772949	4.47058821
463.80191040	4.49019623
463.80590820	4.49019623
463.81002808	4.49019623
463.81002808	4.49019623
463.81411743	4.49019623
463.81835938	4.49019623
463.82244873	4.49019623
463.82244873	4.49019623
463.82641602	4.49019623
463.83053589	4.49019623
463.83471680	4.49019623
463.83471680	4.49019623
463.83880615	4.47058821
463.84277344	4.49019623
463.84689331	4.49019623
463.85104370	4.49019623
463.85516357	4.49019623
463.85516357	4.49019623
463.85916138	4.49019623
463.86343384	4.49019623
463.86743164	4.49019623
463.86743164	4.49019623
463.87149048	4.49019623
463.87554932	4.49019623
463.87973022	4.49019623
463.87973022	4.49019623
463.88385010	4.49019623
463.88793945	4.49019623
463.89202881	4.49019623
463.89602661	4.49019623
463.90020752	4.49019623
463.90020752	4.49019623
463.90426636	4.49019623
463.90835571	4.49019623
463.91250610	4.49019623
463.91250610	4.49019623
463.91653442	4.49019623
463.92065430	4.49019623
463.92480469	4.49019623
463.92480469	4.49019623
463.92877197	4.49019623
463.93292236	4.49019623
463.93707275	4.49019623
463.94122314	4.49019623
463.94534302	4.47058821
463.94534302	4.47058821
463.94943237	4.49019623
463.95343018	4.49019623
463.95755005	4.49019623
463.95755005	4.47058821
463.96173096	4.47058821
463.96566772	4.47058821
463.96969604	4.47058821
463.96969604	4.47058821
463.97393799	4.47058821
463.97802734	4.47058821
463.97802734	4.47058821
463.98214722	4.47058821
463.98614502	4.47058821
463.99041748	4.47058821
463.99041748	4.47058821
463.99438477	4.47058821
463.99859619	4.47058821
464.00268555	4.47058821
464.00268555	4.47058821
464.00671387	4.47058821
464.01080322	4.47058821
464.01492310	4.47058821
464.01492310	4.47058821
464.01904297	4.45098019
464.02307129	4.45098019
464.02307129	4.45098019
464.02706909	4.45098019
464.03125000	4.45098019
464.03543091	4.45098019
464.03543091	4.45098019
464.03939819	4.45098019
464.04351807	4.45098019
464.04766846	4.45098019
464.04766846	4.45098019
464.05178833	4.45098019
464.05575562	4.45098019
464.05990601	4.45098019
464.05990601	4.45098019
464.06408691	4.45098019
464.06823730	4.45098019
464.06823730	4.45098019
464.07232666	4.43137264
464.07641602	4.43137264
464.08041382	4.43137264
464.08041382	4.43137264
464.08456421	4.43137264
464.08868408	4.43137264
464.09277344	4.43137264
464.09277344	4.43137264
464.09677124	4.43137264
464.10095215	4.43137264
464.10504150	4.43137264
464.10504150	4.43137264
464.10910034	4.43137264
464.11322021	4.43137264
464.11322021	4.43137264
464.11734009	4.43137264
464.12145996	4.43137264
464.12554932	4.43137264
464.12554932	4.43137264
464.12957764	4.43137264
464.13369751	4.43137264
464.13781738	4.41176462
464.13781738	4.41176462
464.14190674	4.41176462
464.14611816	4.41176462
464.14996338	4.43137264
464.15411377	4.43137264
464.15832520	4.43137264
464.15832520	4.43137264
464.16244507	4.43137264
464.16638184	4.43137264
464.17050171	4.43137264
464.17050171	4.43137264
464.17468262	4.43137264
464.17880249	4.43137264
464.18292236	4.43137264
464.18292236	4.43137264
464.18695068	4.41176462
464.19110107	4.43137264
464.19519043	4.41176462
464.19915771	4.41176462
464.20339966	4.41176462
464.20339966	4.41176462
464.20745850	4.41176462
464.21157837	4.41176462
464.21566772	4.41176462
464.21566772	4.41176462
464.21966553	4.41176462
464.22381592	4.41176462
464.22796631	4.41176462
464.22796631	4.41176462
464.23208618	4.41176462
464.23620605	4.41176462
464.24017334	4.41176462
464.24435425	4.41176462
464.24844360	4.41176462
464.24844360	4.41176462
464.25259399	4.41176462
464.25656128	4.41176462
464.26068115	4.41176462
464.26068115	4.41176462
464.26477051	4.41176462
464.26892090	4.41176462
464.27310181	4.41176462
464.27310181	4.41176462
464.27703857	4.41176462
464.28115845	4.41176462
464.28530884	4.39215708
464.28945923	4.39215708
464.29345703	4.39215708
464.29345703	4.39215708
464.29754639	4.39215708
464.30172729	4.39215708
464.30578613	4.39215708
464.30578613	4.39215708
464.30981445	4.39215708
464.31396484	4.39215708
464.31808472	4.39215708
464.31808472	4.39215708
464.32220459	4.39215708
464.32629395	4.39215708
464.33041382	4.39215708
464.33441162	4.39215708
464.33853149	4.39215708
464.33853149	4.39215708
464.34265137	4.39215708
464.34664917	4.39215708
464.35079956	4.39215708
464.35079956	4.39215708
464.35494995	4.39215708
464.35910034	4.39215708
464.36322021	4.39215708
464.36322021	4.39215708
464.36721802	4.39215708
464.37133789	4.39215708
464.37545776	4.39215708
464.37960815	4.39215708
464.38357544	4.39215708
464.38357544	4.39215708
464.38766479	4.39215708
464.39178467	4.39215708
464.39590454	4.39215708
464.39590454	4.39215708
464.39996338	4.39215708
464.40408325	4.39215708
464.40817261	4.39215708
464.40817261	4.39215708
464.41229248	4.39215708
464.41647339	4.39215708
464.42044067	4.39215708
464.42462158	4.39215708
464.42871094	4.39215708
464.42871094	4.39215708
464.43286133	4.39215708
464.43682861	4.39215708
464.44097900	4.39215708
464.44097900	4.39215708
464.44509888	4.39215708
464.44918823	4.39215708
464.45327759	4.39215708
464.45327759	4.37254906
464.45739746	4.39215708
464.46145630	4.37254906
464.46145630	4.37254906
464.46545410	4.37254906
464.46948242	4.37254906
464.47369385	4.37254906
464.47369385	4.37254906
464.47778320	4.37254906
464.48193359	4.37254906
464.48605347	4.37254906
464.48605347	4.37254906
464.49002075	4.37254906
464.49417114	4.37254906
464.49826050	4.37254906
464.49826050	4.37254906
464.50244141	4.37254906
464.50656128	4.37254906
464.50656128	4.37254906
464.51058960	4.37254906
464.51467896	4.37254906
464.51876831	4.37254906
464.51876831	4.37254906
464.52285767	4.37254906
464.52682495	4.37254906
464.53097534	4.37254906
464.53097534	4.37254906
464.53515625	4.37254906
464.53927612	4.37254906
464.54339600	4.37254906
464.54339600	4.37254906
464.54739380	4.37254906
464.55154419	4.37254906
464.55154419	4.37254906
464.55563354	4.37254906
464.55966187	4.37254906
464.56375122	4.37254906
464.56375122	4.37254906
464.56793213	4.37254906
464.57208252	4.37254906
464.57620239	4.37254906
464.57620239	4.37254906
464.58016968	4.37254906
464.58432007	4.37254906
464.58840942	4.37254906
464.58840942	4.37254906
464.59246826	4.37254906
464.59661865	4.37254906
464.59661865	4.37254906
464.60064697	4.37254906
464.60473633	4.37254906
464.60891724	4.37254906
464.60891724	4.37254906
464.61291504	4.37254906
464.61700439	4.37254906
464.62115479	4.37254906
464.62115479	4.37254906
464.62527466	4.37254906
464.62939453	4.37254906
464.63336182	4.37254906
464.63751221	4.37254906
464.64157104	4.37254906
464.64157104	4.37254906
464.64575195	4.37254906
464.64968872	4.37254906
464.65386963	4.37254906
464.65386963	4.37254906
464.65805054	4.37254906
464.66213989	4.37254906
464.66629028	4.37254906
464.66629028	4.37254906
464.67041016	4.37254906
464.67440796	4.37254906
464.67852783	4.37254906
464.68261719	4.37254906
464.68679810	4.37254906
464.68679810	4.37254906
464.69073486	4.37254906
464.69485474	4.37254906
464.69900513	4.37254906
464.69900513	4.37254906
464.70306396	4.37254906
464.70712280	4.37254906
464.71133423	4.37254906
464.71133423	4.37254906
464.71536255	4.37254906
464.71951294	4.37254906
464.72354126	4.37254906
464.72766113	4.37254906
464.73178101	4.37254906
464.73178101	4.37254906
464.73590088	4.37254906
464.73989868	4.37254906
464.74401855	4.37254906
464.74401855	4.37254906
464.74813843	4.37254906
464.75228882	4.37254906
464.75640869	4.37254906
464.75640869	4.37254906
464.76034546	4.37254906
464.76458740	4.37254906
464.76864624	4.37254906
464.77276611	4.37254906
464.77694702	4.37254906
464.77694702	4.37254906
464.78091431	4.37254906
464.78503418	4.37254906
464.78915405	4.37254906
464.78915405	4.35294104
464.79318237	4.35294104
464.79745483	4.35294104
464.80145264	4.35294104
464.80145264	4.35294104
464.80560303	4.35294104
464.80972290	4.35294104
464.81369019	4.35294104
464.81784058	4.35294104
464.82189941	4.35294104
464.82189941	4.35294104
464.82601929	4.35294104
464.83001709	4.35294104
464.83407593	4.35294104
464.83407593	4.35294104
464.83825684	4.35294104
464.84234619	4.35294104
464.84652710	4.35294104
464.84652710	4.35294104
464.85052490	4.35294104
464.85461426	4.35294104
464.85879517	4.35294104
464.86291504	4.35294104
464.86703491	4.35294104
464.86703491	4.35294104
464.87106323	4.35294104
464.87515259	4.35294104
464.87930298	4.35294104
464.87930298	4.35294104
464.88339233	4.35294104
464.88745117	4.35294104
464.89160156	4.35294104
464.89160156	4.35294104
464.89569092	4.35294104
464.89978027	4.35294104
464.90377808	4.35294104
464.90795898	4.35294104
464.91204834	4.35294104
464.91204834	4.35294104
464.91607666	4.35294104
464.92010498	4.35294104
464.92443848	4.35294104
464.92443848	4.35294104
464.92840576	4.35294104
464.93252563	4.35294104
464.93664551	4.35294104
464.93664551	4.35294104
464.94064331	4.35294104
464.94482422	4.35294104
464.94482422	4.35294104
464.94894409	4.35294104
464.95309448	4.35294104
464.95715332	4.35294104
464.95715332	4.37254906
464.96115112	4.37254906
464.96527100	4.37254906
464.96945190	4.37254906
464.96945190	4.37254906
464.97332764	4.37254906
464.97750854	4.37254906
464.98162842	4.37254906
464.98162842	4.37254906
464.98577881	4.37254906
464.98989868	4.37254906
464.98989868	4.37254906
464.99389648	4.37254906
464.99798584	4.37254906
465.00207520	4.37254906
465.00207520	4.37254906
465.00625610	4.37254906
465.01031494	4.37254906
465.01434326	4.37254906
465.01434326	4.37254906
465.01852417	4.37254906
465.02264404	4.37254906
465.02676392	4.37254906
465.02676392	4.37254906
465.03076172	4.37254906
465.03488159	4.37254906
465.03488159	4.37254906
465.03900146	4.37254906
465.04315186	4.37254906
465.04727173	4.37254906
465.04727173	4.37254906
465.05139160	4.37254906
465.05538940	4.37254906
465.05953979	4.37254906
465.05953979	4.37254906
465.06353760	4.37254906
465.06762695	4.37254906
465.07180786	4.37254906
465.07180786	4.37254906
465.07592773	4.37254906
465.08007813	4.37254906
465.08007813	4.37254906
465.08404541	4.37254906
465.08813477	4.37254906
465.09225464	4.37254906
465.09225464	4.37254906
465.09637451	4.37254906
465.10031128	4.37254906
465.10452271	4.37254906
465.10452271	4.37254906
465.10870361	4.37254906
465.11279297	4.37254906
465.11691284	4.37254906
465.12084961	4.37254906
465.12503052	4.37254906
465.12503052	4.37254906
465.12908936	4.37254906
465.13323975	4.37254906
465.13735962	4.37254906
465.13735962	4.37254906
465.14138794	4.37254906
465.14553833	4.37254906
465.14962769	4.37254906
465.14962769	4.35294104
465.15371704	4.37254906
465.15777588	4.37254906
465.16192627	4.37254906
465.16604614	4.37254906
465.17013550	4.37254906
465.17013550	4.37254906
465.17416382	4.37254906
465.17840576	4.37254906
465.18240356	4.37254906
465.18240356	4.37254906
465.18658447	4.37254906
465.19052124	4.37254906
465.19470215	4.37254906
465.19470215	4.37254906
465.19879150	4.37254906
465.20288086	4.37254906
465.20700073	4.37254906
465.21102905	4.37254906
465.21508789	4.37254906
465.21508789	4.37254906
465.21923828	4.37254906
465.22344971	4.37254906
465.22753906	4.37254906
465.22753906	4.37254906
465.23153687	4.37254906
465.23562622	4.37254906
465.23974609	4.37254906
465.23974609	4.37254906
465.24377441	4.35294104
465.24795532	4.35294104
465.25204468	4.35294104
465.25622559	4.35294104
465.26028442	4.35294104
465.26028442	4.35294104
465.26440430	4.35294104
465.26840210	4.35294104
465.27258301	4.35294104
465.27258301	4.35294104
465.27655029	4.35294104
465.28060913	4.35294104
465.28475952	4.35294104
465.28475952	4.35294104
465.28890991	4.35294104
465.29302979	4.35294104
465.29714966	4.35294104
465.30111694	4.35294104
465.30535889	4.35294104
465.30535889	4.35294104
465.30938721	4.35294104
465.31356812	4.35294104
465.31768799	4.35294104
465.31768799	4.35294104
465.32168579	4.35294104
465.32580566	4.35294104
465.32989502	4.35294104
465.32989502	4.35294104
465.33383179	4.35294104
465.33795166	4.35294104
465.34213257	4.35294104
465.34625244	4.35294104
465.35040283	4.35294104
465.35040283	4.35294104
465.35440063	4.35294104
465.35852051	4.35294104
465.36264038	4.35294104
465.36264038	4.35294104
465.36676025	4.35294104
465.37075806	4.35294104
465.37493896	4.35294104
465.37493896	4.35294104
465.37905884	4.35294104
465.38320923	4.35294104
465.38729858	4.35294104
465.39138794	4.35294104
465.39535522	4.35294104
465.39535522	4.35294104
465.39944458	4.35294104
465.40359497	4.35294104
465.40780640	4.35294104
465.40780640	4.35294104
465.41177368	4.35294104
465.41589355	4.35294104
465.42001343	4.35294104
465.42001343	4.35294104
465.42401123	4.35294104
465.42810059	4.35294104
465.42810059	4.35294104
465.43225098	4.35294104
465.43637085	4.35294104
465.44058228	4.35294104
465.44058228	4.35294104
465.44458008	4.35294104
465.44866943	4.35294104
465.45275879	4.35294104
465.45275879	4.35294104
465.45684814	4.35294104
465.46081543	4.35294104
465.46496582	4.35294104
465.46496582	4.35294104
465.46911621	4.35294104
465.47329712	4.35294104
465.47329712	4.35294104
465.47738647	4.35294104
465.48135376	4.35294104
465.48559570	4.37254906
465.48559570	4.37254906
465.48965454	4.37254906
465.49383545	4.37254906
465.49795532	4.37254906
465.49795532	4.37254906
465.50192261	4.37254906
465.50604248	4.37254906
465.51019287	4.37254906
465.51019287	4.37254906
465.51416016	4.37254906
465.51840210	4.37254906
465.51840210	4.37254906
465.52243042	4.37254906
465.52655029	4.37254906
465.53063965	4.37254906
465.53063965	4.37254906
465.53463745	4.37254906
465.53878784	4.37254906
465.54296875	4.37254906
465.54296875	4.37254906
465.54708862	4.37254906
465.55108643	4.37254906
465.55517578	4.37254906
465.55517578	4.37254906
465.55932617	4.37254906
465.56341553	4.37254906
465.56341553	4.37254906
465.56744385	4.37254906
465.57156372	4.37254906
465.57565308	4.37254906
465.57565308	4.37254906
465.57977295	4.37254906
465.58389282	4.37254906
465.58795166	4.37254906
465.58795166	4.37254906
465.59204102	4.37254906
465.59616089	4.37254906
465.60031128	4.37254906
465.60455322	4.37254906
465.60842896	4.37254906
465.60842896	4.37254906
465.61251831	4.37254906
465.61666870	4.37254906
465.62078857	4.37254906
465.62078857	4.37254906
465.62475586	4.37254906
465.62887573	4.37254906
465.63299561	4.37254906
465.63299561	4.37254906
465.63708496	4.37254906
465.64114380	4.37254906
465.64532471	4.37254906
465.64938354	4.37254906
465.65353394	4.37254906
465.65353394	4.37254906
465.65756226	4.37254906
465.66162109	4.37254906
465.66577148	4.37254906
465.66577148	4.37254906
465.66989136	4.37254906
465.67404175	4.37254906
465.67803955	4.37254906
465.67803955	4.37254906
465.68215942	4.37254906
465.68627930	4.37254906
465.69036865	4.37254906
465.69439697	4.37254906
465.69845581	4.37254906
465.69845581	4.37254906
465.70263672	4.37254906
465.70675659	4.37254906
465.71081543	4.37254906
465.71081543	4.37254906
465.71487427	4.37254906
465.71902466	4.37254906
465.72314453	4.37254906
465.72314453	4.37254906
465.72729492	4.37254906
465.73141479	4.37254906
465.73538208	4.37254906
465.73950195	4.37254906
465.74365234	4.37254906
465.74365234	4.37254906
465.74780273	4.37254906
465.75173950	4.37254906
465.75595093	4.37254906
465.75595093	4.37254906
465.76004028	4.37254906
465.76416016	4.37254906
465.76812744	4.37254906
465.76812744	4.37254906
465.77243042	4.37254906
465.77639771	4.37254906
465.78051758	4.37254906
465.78442383	4.37254906
465.78866577	4.37254906
465.78866577	4.37254906
465.79275513	4.37254906
465.79690552	4.37254906
465.80102539	4.37254906
465.80102539	4.37254906
465.80496216	4.37254906
465.80914307	4.37254906
465.81326294	4.37254906
465.81326294	4.37254906
465.81741333	4.37254906
465.82144165	4.37254906
465.82556152	4.37254906
465.82965088	4.37254906
465.83374023	4.37254906
465.83374023	4.37254906
465.83786011	4.37254906
465.84191895	4.37254906
465.84594727	4.37254906
465.84594727	4.37254906
465.85012817	4.37254906
465.85427856	4.37254906
465.85842896	4.37254906
465.85842896	4.37254906
465.86239624	4.37254906
465.86651611	4.37254906
465.87066650	4.37254906
465.87466431	4.37254906
465.87881470	4.37254906
465.87881470	4.37254906
465.88293457	4.37254906
465.88705444	4.37254906
465.89117432	4.37254906
465.89117432	4.37254906
465.89514160	4.37254906
465.89941406	4.37254906
465.90335083	4.37254906
465.90335083	4.37254906
465.90747070	4.37254906
465.91162109	4.37254906
465.91162109	4.37254906
465.91564941	4.37254906
465.91976929	4.37254906
465.92391968	4.37254906
465.92391968	4.37254906
465.92785645	4.37254906
465.93200684	4.37254906
465.93612671	4.37254906
465.93612671	4.37254906
465.94027710	4.37254906
465.94442749	4.37254906
465.94842529	4.37254906
465.94842529	4.37254906
465.95257568	4.37254906
465.95666504	4.37254906
465.95666504	4.37254906
465.96075439	4.37254906
465.96472168	4.37254906
465.96881104	4.37254906
465.96881104	4.37254906
465.97299194	4.37254906
465.97714233	4.37254906
465.98126221	4.37254906
465.98126221	4.37254906
465.98538208	4.37254906
465.98937988	4.37254906
465.99349976	4.37254906
465.99349976	4.37254906
465.99765015	4.37254906
466.00177002	4.37254906
466.00177002	4.37254906
466.00576782	4.37254906
466.00991821	4.37254906
466.01406860	4.37254906
466.01406860	4.37254906
466.01806641	4.37254906
466.02212524	4.37254906
466.02633667	4.37254906
466.02633667	4.37254906
466.03030396	4.37254906
466.03448486	4.37254906
466.03863525	4.37254906
466.03863525	4.37254906
466.04266357	4.37254906
466.04675293	4.37254906
466.04675293	4.37254906
466.05090332	4.37254906
466.05484009	4.37254906
466.05902100	4.37254906
466.05902100	4.37254906
466.06314087	4.37254906
466.06726074	4.37254906
466.07135010	4.37254906
466.07135010	4.37254906
466.07537842	4.37254906
466.07943726	4.37254906
466.08361816	4.37254906
466.08770752	4.37254906
466.09188843	4.37254906
466.09188843	4.37254906
466.09588623	4.37254906
466.10000610	4.35294104
466.10412598	4.35294104
466.10412598	4.35294104
466.10815430	4.35294104
466.11239624	4.35294104
466.11636353	4.35294104
466.11636353	4.35294104
466.12054443	4.35294104
466.12469482	4.35294104
466.12866211	4.35294104
466.13269043	4.35294104
466.13684082	4.35294104
466.13684082	4.35294104
466.14105225	4.35294104
466.14492798	4.35294104
466.14910889	4.35294104
466.14910889	4.35294104
466.15325928	4.35294104
466.15740967	4.35294104
466.16152954	4.35294104
466.16152954	4.35294104
466.16543579	4.35294104
466.16964722	4.35294104
466.17376709	4.35294104
466.17791748	4.35294104
466.18206787	4.35294104
466.18206787	4.35294104
466.18606567	4.35294104
466.19018555	4.35294104
466.19430542	4.35294104
466.19430542	4.35294104
466.19845581	4.35294104
466.20242310	4.35294104
466.20651245	4.35294104
466.20651245	4.35294104
466.21063232	4.35294104
466.21478271	4.35294104
466.21878052	4.35294104
466.22290039	4.35294104
466.22702026	4.35294104
466.22702026	4.35294104
466.23117065	4.35294104
466.23519897	4.35294104
466.23941040	4.35294104
466.23941040	4.35294104
466.24343872	4.35294104
466.24755859	4.35294104
466.25170898	4.35294104
466.25170898	4.35294104
466.25564575	4.35294104
466.25982666	4.35294104
466.26394653	4.35294104
466.26803589	4.35294104
466.27200317	4.35294104
466.27200317	4.35294104
466.27612305	4.35294104
466.28036499	4.35294104
466.28442383	4.35294104
466.28442383	4.35294104
466.28836060	4.35294104
466.29248047	4.35294104
466.29656982	4.35294104
466.29656982	4.35294104
466.30075073	4.35294104
466.30484009	4.35294104
466.30889893	4.35294104
466.31301880	4.35294104
466.31713867	4.35294104
466.31713867	4.35294104
466.32122803	4.35294104
466.32543945	4.35294104
466.32940674	4.35294104
466.32940674	4.35294104
466.33349609	4.35294104
466.33767700	4.35294104
466.34179688	4.35294104
466.34179688	4.35294104
466.34576416	4.35294104
466.34988403	4.35294104
466.35397339	4.35294104
466.35815430	4.35294104
466.36215210	4.35294104
466.36215210	4.35294104
466.36639404	4.35294104
466.37033081	4.35294104
466.37451172	4.35294104
466.37451172	4.35294104
466.37841797	4.35294104
466.38269043	4.35294104
466.38674927	4.35294104
466.38674927	4.35294104
466.39089966	4.35294104
466.39505005	4.35294104
466.39505005	4.35294104
466.39904785	4.35294104
466.40319824	4.35294104
466.40737915	4.35294104
466.40737915	4.35294104
466.41143799	4.35294104
466.41540527	4.35294104
466.41955566	4.35294104
466.41955566	4.35294104
466.42364502	4.35294104
466.42782593	4.35294104
466.43194580	4.35294104
466.43194580	4.35294104
466.43591309	4.35294104
466.44006348	4.35294104
466.44006348	4.35294104
466.44418335	4.35294104
466.44830322	4.35294104
466.45245361	4.35294104
466.45245361	4.35294104
466.45639038	4.35294104
466.46051025	4.35294104
466.46463013	4.35294104
466.46463013	4.35294104
466.46868896	4.35294104
466.47271729	4.35294104
466.47680664	4.35294104
466.47680664	4.35294104
466.48098755	4.35294104
466.48513794	4.35294104
466.48513794	4.35294104
466.48913574	4.35294104
466.49340820	4.35294104
466.49737549	4.35294104
466.49737549	4.35294104
466.50152588	4.35294104
466.50549316	4.35294104
466.50967407	4.35294104
466.50967407	4.35294104
466.51382446	4.35294104
466.51791382	4.35294104
466.52200317	4.35294104
466.52200317	4.35294104
466.52600098	4.35294104
466.53015137	4.35294104
466.53015137	4.35294104
466.53421021	4.35294104
466.53833008	4.35294104
466.54238892	4.35294104
466.54238892	4.35294104
466.54653931	4.35294104
466.55065918	4.35294104
466.55471802	4.35294104
466.55471802	4.35294104
466.55877686	4.35294104
466.56286621	4.35294104
466.56701660	4.35294104
466.57125854	4.35294104
466.57531738	4.35294104
466.57531738	4.35294104
466.57943726	4.35294104
466.58337402	4.35294104
466.58749390	4.35294104
466.58749390	4.35294104
466.59167480	4.35294104
466.59558105	4.35294104
466.59967041	4.35294104
466.59967041	4.35294104
466.60385132	4.35294104
466.60803223	4.35294104
466.61215210	4.35294104
466.61611938	4.35294104
466.62039185	4.35294104
466.62039185	4.35294104
466.62442017	4.35294104
466.62850952	4.35294104
466.63250732	4.35294104
466.63250732	4.35294104
466.63668823	4.35294104
466.64080811	4.35294104
466.64492798	4.35294104
466.64492798	4.35294104
466.64889526	4.35294104
466.65298462	4.35294104
466.65716553	4.35294104
466.66125488	4.35294104
466.66537476	4.35294104
466.66537476	4.35294104
466.66937256	4.35294104
466.67355347	4.35294104
466.67767334	4.35294104
466.67767334	4.35294104
466.68182373	4.35294104
466.68579102	4.35294104
466.68991089	4.35294104
466.68991089	4.35294104
466.69406128	4.35294104
466.69818115	4.35294104
466.70230103	4.35294104
466.70642090	4.35294104
466.71038818	4.37254906
466.71038818	4.35294104
466.71450806	4.35294104
466.71868896	4.35294104
466.72265625	4.35294104
466.72265625	4.35294104
466.72674561	4.35294104
466.73086548	4.35294104
466.73504639	4.35294104
466.73504639	4.37254906
466.73907471	4.35294104
466.74316406	4.35294104
466.74731445	4.37254906
466.75143433	4.35294104
466.75552368	4.35294104
466.75552368	4.35294104
466.75955200	4.35294104
466.76364136	4.35294104
466.76782227	4.35294104
466.76782227	4.35294104
466.77191162	4.35294104
466.77587891	4.35294104
466.77999878	4.35294104
466.77999878	4.35294104
466.78421021	4.35294104
466.78826904	4.35294104
466.79238892	4.35294104
466.79638672	4.35294104
466.80056763	4.35294104
466.80056763	4.35294104
466.80465698	4.35294104
466.80883789	4.35294104
466.81280518	4.35294104
466.81280518	4.35294104
466.81695557	4.35294104
466.82110596	4.35294104
466.82513428	4.35294104
466.82513428	4.35294104
466.82916260	4.35294104
466.83337402	4.35294104
466.83740234	4.35294104
466.84149170	4.35294104
466.84564209	4.35294104
466.84564209	4.35294104
466.84963989	4.35294104
466.85372925	4.35294104
466.85787964	4.35294104
466.85787964	4.35294104
466.86203003	4.35294104
466.86605835	4.35294104
466.87017822	4.35294104
466.87017822	4.35294104
466.87432861	4.35294104
466.87844849	4.35294104
466.87844849	4.35294104
466.88244629	4.35294104
466.88653564	4.35294104
466.89065552	4.35294104
466.89065552	4.35294104
466.89477539	4.35294104
466.89889526	4.35294104
466.90286255	4.35294104
466.90286255	4.35294104
466.90704346	4.35294104
466.91113281	4.35294104
466.91525269	4.35294104
466.91525269	4.35294104
466.91937256	4.35294104
466.92337036	4.35294104
466.92337036	4.35294104
466.92749023	4.35294104
466.93164063	4.35294104
466.93576050	4.35294104
466.93576050	4.35294104
466.93975830	4.35294104
