414.25051880	4.25490189
414.25457764	4.27450991
414.25872803	4.25490189
414.25872803	4.23529434
414.26272583	4.19607830
414.26681519	4.19607830
414.27096558	4.23529434
414.27096558	4.25490189
414.27517700	4.27450991
414.27914429	4.25490189
414.28323364	4.19607830
414.28738403	4.19607830
414.29153442	4.25490189
414.29153442	4.27450991
414.29550171	4.27450991
414.29962158	4.25490189
414.30380249	4.19607830
414.30380249	4.15686274
414.30795288	4.21568632
414.31207275	4.25490189
414.31607056	4.27450991
414.31607056	4.27450991
414.32019043	4.23529434
414.32434082	4.19607830
414.32843018	4.23529434
414.33239746	4.25490189
414.33651733	4.27450991
414.33651733	4.25490189
414.34066772	4.21568632
414.34475708	4.19607830
414.34887695	4.19607830
414.34887695	4.25490189
414.35302734	4.27450991
414.35708618	4.27450991
414.36120605	4.25490189
414.36120605	4.19607830
414.36535645	4.19607830
414.36932373	4.23529434
414.36932373	4.25490189
414.37338257	4.27450991
414.37756348	4.25490189
414.38168335	4.23529434
414.38168335	4.19607830
414.38568115	4.19607830
414.38980103	4.23529434
414.39404297	4.27450991
414.39404297	4.27450991
414.39801025	4.25490189
414.40216064	4.21568632
414.40618896	4.17647076
414.40618896	4.19607830
414.41024780	4.25490189
414.41436768	4.27450991
414.41436768	4.25490189
414.41848755	4.23529434
414.42251587	4.19607830
414.42663574	4.19607830
414.42663574	4.21568632
414.43075562	4.27450991
414.43490601	4.27450991
414.43896484	4.25490189
414.43896484	4.23529434
414.44299316	4.17647076
414.44711304	4.19607830
414.45129395	4.25490189
414.45129395	4.25490189
414.45538330	4.27450991
414.45950317	4.25490189
414.45950317	4.21568632
414.46356201	4.19607830
414.46765137	4.21568632
414.47177124	4.25490189
414.47177124	4.27450991
414.47579956	4.27450991
414.48007202	4.25490189
414.48406982	4.19607830
414.48406982	4.19607830
414.48818970	4.23529434
414.49234009	4.27450991
414.49630737	4.29411745
414.49630737	4.29411745
414.50042725	4.21568632
414.50457764	4.19607830
414.50457764	4.19607830
414.50869751	4.23529434
414.51269531	4.27450991
414.51678467	4.27450991
414.51678467	4.25490189
414.52087402	4.23529434
414.52502441	4.21568632
414.52920532	4.21568632
414.52920532	4.27450991
414.53314209	4.29411745
414.53726196	4.29411745
414.54135132	4.21568632
414.54553223	4.21568632
414.54965210	4.21568632
414.54965210	4.27450991
414.55361938	4.27450991
414.55776978	4.27450991
414.56185913	4.25490189
414.56185913	4.19607830
414.56591797	4.21568632
414.56997681	4.27450991
414.57409668	4.27450991
414.57409668	4.29411745
414.57824707	4.27450991
414.58239746	4.21568632
414.58639526	4.23529434
414.59051514	4.27450991
414.59463501	4.27450991
414.59463501	4.27450991
414.59875488	4.25490189
414.60275269	4.21568632
414.60699463	4.21568632
414.60699463	4.21568632
414.61099243	4.27450991
414.61514282	4.29411745
414.61926270	4.27450991
414.61926270	4.23529434
414.62326050	4.19607830
414.62738037	4.19607830
414.63156128	4.27450991
414.63565063	4.27450991
414.63967896	4.27450991
414.63967896	4.21568632
414.64376831	4.17647076
414.64788818	4.21568632
414.65200806	4.27450991
414.65200806	4.27450991
414.65609741	4.27450991
414.66015625	4.25490189
414.66427612	4.19607830
414.66427612	4.19607830
414.66839600	4.23529434
414.67260742	4.27450991
414.67657471	4.27450991
414.68069458	4.21568632
414.68481445	4.19607830
414.68481445	4.21568632
414.68893433	4.27450991
414.69308472	4.27450991
414.69708252	4.27450991
414.69708252	4.27450991
414.70120239	4.19607830
414.70529175	4.19607830
414.70938110	4.21568632
414.70938110	4.27450991
414.71337891	4.29411745
414.71755981	4.27450991
414.72155762	4.17647076
414.72573853	4.17647076
414.72976685	4.21568632
414.72976685	4.27450991
414.73403931	4.27450991
414.73800659	4.27450991
414.74215698	4.25490189
414.74215698	4.19607830
414.74615479	4.21568632
414.75024414	4.27450991
414.75439453	4.27450991
414.75439453	4.27450991
414.75854492	4.25490189
414.76266479	4.19607830
414.76663208	4.21568632
414.77078247	4.27450991
414.77487183	4.27450991
414.77487183	4.27450991
414.77896118	4.21568632
414.78292847	4.11764717
414.78707886	3.13725495
414.78707886	2.82352948
414.79129028	2.80392146
414.79537964	2.82352948
414.79949951	2.82352948
414.79949951	2.84313726
414.80349731	2.84313726
414.80764771	2.82352948
414.80764771	2.82352948
414.81176758	3.50980401
414.81588745	4.31372547
414.82006836	4.27450991
414.82006836	4.21568632
414.82403564	4.17647076
414.82818604	4.23529434
414.83227539	4.29411745
414.83227539	4.31372547
414.83624268	4.31372547
414.84033203	4.29411745
414.84442139	4.27450991
414.84442139	4.29411745
414.84860229	4.31372547
414.85275269	4.31372547
414.85275269	4.33333349
414.85671997	4.29411745
414.86090088	4.25490189
414.86502075	4.23529434
414.86502075	4.27450991
414.86914063	4.31372547
414.87310791	4.31372547
414.87722778	4.31372547
414.87722778	4.25490189
414.88137817	4.01960802
414.88546753	2.86274505
414.88961792	2.82352948
414.88961792	3.01960778
414.89355469	4.35294104
414.89773560	4.35294104
414.89773560	4.33333349
414.90179443	4.29411745
414.90603638	4.27450991
414.91003418	4.31372547
414.91003418	4.33333349
414.91415405	4.33333349
414.91824341	4.33333349
414.92233276	4.31372547
414.92233276	4.31372547
414.92639160	4.31372547
414.93057251	4.35294104
414.93469238	4.35294104
414.93469238	4.33333349
414.93878174	4.29411745
414.94293213	4.25490189
414.94293213	4.27450991
414.94705200	4.27450991
414.95108032	4.33333349
414.95513916	4.35294104
414.95513916	4.35294104
414.95928955	4.29411745
414.96325684	4.21568632
414.96740723	4.27450991
414.96740723	4.35294104
414.97149658	4.35294104
414.97564697	4.35294104
414.97976685	4.33333349
414.97976685	4.29411745
414.98379517	4.21568632
414.98806763	4.21568632
414.98806763	4.29411745
414.99209595	4.31372547
414.99621582	4.33333349
415.00018311	4.31372547
415.00018311	4.27450991
415.00433350	4.27450991
415.00842285	4.33333349
415.01251221	4.35294104
415.01251221	4.35294104
415.01651001	4.31372547
415.02066040	3.84313726
415.02478027	2.80392146
415.02886963	4.33333349
415.03305054	4.35294104
415.03305054	4.37254906
415.03704834	4.35294104
415.04119873	4.27450991
415.04531860	4.21568632
415.04531860	2.94117641
415.04943848	3.09803915
415.05346680	4.35294104
415.05752563	4.37254906
415.05752563	4.35294104
415.06167603	4.33333349
415.06582642	4.31372547
415.06991577	4.33333349
415.07403564	4.35294104
415.07803345	4.27450991
415.07803345	4.27450991
415.08215332	4.27450991
415.08612061	4.25490189
415.09030151	4.29411745
415.09030151	4.33333349
415.09439087	4.33333349
415.09851074	4.11764717
415.10263062	3.39215684
415.10263062	3.29411769
415.10665894	4.29411745
415.11080933	4.33333349
415.11492920	4.35294104
415.11907959	4.31372547
415.12316895	4.33333349
415.12316895	4.33333349
415.12719727	4.35294104
415.13128662	4.35294104
415.13537598	4.33333349
415.13537598	4.33333349
415.13949585	4.27450991
415.14346313	4.23529434
415.14758301	4.27450991
415.14758301	4.33333349
415.15173340	4.35294104
415.15588379	4.33333349
415.16000366	4.33333349
415.16397095	4.31372547
415.16812134	4.31372547
415.16812134	4.27450991
415.17221069	4.17647076
415.17639160	4.19607830
415.18038940	4.25490189
415.18038940	4.25490189
415.18447876	4.29411745
415.18865967	4.31372547
415.19268799	4.19607830
415.19268799	4.27450991
415.19671631	4.29411745
415.20095825	4.27450991
415.20495605	2.86274505
415.20919800	2.86274505
415.21325684	2.86274505
415.21325684	2.86274505
415.21722412	2.86274505
415.22137451	2.84313726
415.22552490	2.84313726
415.22552490	2.84313726
415.22964478	2.88235283
415.23361206	2.86274505
415.23773193	2.86274505
415.23773193	2.86274505
415.24194336	2.88235283
415.24606323	2.88235283
415.25006104	2.86274505
415.25415039	2.86274505
415.25830078	2.86274505
415.25830078	2.86274505
415.26239014	2.84313726
415.26651001	2.86274505
415.27053833	2.86274505
415.27053833	3.11764717
415.27471924	4.29411745
415.27874756	4.25490189
415.28286743	4.27450991
415.28286743	4.27450991
415.28704834	4.27450991
415.29104614	4.25490189
415.29519653	4.33333349
415.29925537	4.33333349
415.30334473	4.33333349
415.30334473	4.31372547
415.30737305	4.27450991
415.31146240	2.86274505
415.31561279	2.84313726
415.31561279	4.00000000
415.31970215	4.29411745
415.32394409	4.29411745
415.32794189	4.29411745
415.32794189	4.35294104
415.33200073	4.39215708
415.33612061	4.39215708
415.33612061	4.35294104
415.34014893	4.37254906
415.34426880	4.39215708
415.34838867	4.41176462
415.34838867	4.39215708
415.35250854	4.39215708
415.35662842	4.39215708
415.36062622	4.39215708
415.36062622	4.39215708
415.36474609	4.35294104
415.36886597	4.37254906
415.37301636	4.37254906
415.37301636	4.39215708
415.37695313	4.37254906
415.38116455	4.37254906
415.38116455	4.35294104
415.38525391	4.33333349
415.38937378	4.35294104
415.39349365	4.35294104
415.39349365	4.35294104
415.39752197	4.35294104
415.40164185	4.33333349
415.40573120	4.25490189
415.40573120	4.31372547
415.40985107	4.37254906
415.41400146	4.37254906
415.41796875	4.33333349
415.41796875	4.35294104
415.42208862	4.35294104
415.42626953	4.35294104
415.42626953	4.33333349
415.43026733	4.31372547
415.43432617	4.31372547
415.43847656	4.31372547
415.43847656	4.33333349
415.44256592	4.31372547
415.44656372	4.29411745
415.45068359	4.23529434
415.45068359	4.15686274
415.45486450	4.13725471
415.45904541	4.25490189
415.46316528	4.21568632
415.46316528	4.17647076
415.46713257	4.21568632
415.47125244	3.47058821
415.47125244	2.86274505
415.47537231	2.86274505
415.47946167	2.86274505
415.48364258	2.84313726
415.48364258	2.94117641
415.48760986	2.86274505
415.49176025	2.86274505
415.49581909	2.86274505
415.49581909	2.86274505
415.49996948	2.84313726
415.50393677	2.84313726
415.50814819	2.86274505
415.51217651	2.86274505
415.51635742	2.86274505
415.51635742	2.84313726
415.52038574	2.82352948
415.52450562	2.82352948
415.52862549	2.86274505
415.52862549	2.86274505
415.53274536	2.86274505
415.53677368	2.86274505
415.54095459	2.86274505
415.54095459	2.86274505
415.54501343	2.86274505
415.54913330	2.86274505
415.55325317	2.86274505
415.55725098	2.86274505
415.56134033	2.82352948
415.56134033	2.82352948
415.56549072	2.86274505
415.56961060	2.86274505
415.57373047	2.88235283
415.57373047	2.86274505
415.57778931	2.86274505
415.58187866	2.86274505
415.58599854	2.86274505
415.58599854	2.86274505
415.59014893	2.86274505
415.59414673	2.86274505
415.59826660	2.86274505
415.60244751	2.86274505
415.60653687	2.82352948
415.60653687	2.86274505
415.61056519	2.86274505
415.61465454	2.86274505
415.61880493	2.82352948
415.61880493	3.15686274
415.62292480	3.62745094
415.62704468	3.60784316
415.63107300	2.86274505
415.63107300	2.84313726
415.63516235	2.84313726
415.63922119	3.01960778
415.64337158	4.29411745
415.64739990	4.25490189
415.65151978	2.88235283
415.65151978	2.86274505
415.65560913	2.86274505
415.65972900	2.88235283
415.66387939	4.27450991
415.66387939	4.33333349
415.66799927	4.21568632
415.67196655	4.13725471
415.67614746	3.21568632
415.67614746	2.88235283
415.68026733	2.88235283
415.68423462	2.88235283
415.68841553	4.05882359
415.69247437	2.88235283
415.69665527	2.88235283
415.69665527	3.29411769
415.70065308	2.88235283
415.70477295	2.88235283
415.70898438	3.31372547
415.70898438	2.88235283
415.71298218	2.88235283
415.71719360	2.88235283
415.72103882	2.88235283
415.72103882	2.88235283
415.72521973	2.90196085
415.72937012	4.23529434
415.73348999	2.88235283
415.73748779	2.88235283
415.74163818	2.88235283
415.74163818	2.88235283
415.74572754	2.88235283
415.74987793	2.90196085
415.75393677	2.88235283
415.75393677	2.88235283
415.75796509	4.31372547
415.76205444	4.29411745
415.76623535	3.17647052
415.76623535	2.88235283
415.77029419	2.88235283
415.77435303	2.96078420
415.77847290	2.90196085
415.78262329	2.88235283
415.78674316	4.29411745
415.78674316	2.88235283
415.79074097	3.49019599
415.79501343	4.15686274
415.79898071	2.90196085
415.79898071	3.43137264
415.80303955	4.33333349
415.80718994	3.05882359
415.81121826	2.88235283
415.81121826	4.29411745
415.81539917	2.94117641
415.81942749	2.90196085
415.81942749	2.88235283
415.82363892	4.37254906
415.82760620	3.68627453
415.83169556	2.88235283
415.83169556	4.31372547
415.83578491	2.90196085
415.83993530	2.90196085
415.84405518	4.01960802
415.84405518	4.43137264
415.84808350	2.90196085
415.85217285	2.90196085
415.85632324	4.47058821
415.85632324	4.45098019
415.86050415	4.35294104
415.86447144	2.88235283
415.86447144	2.90196085
415.86862183	2.90196085
415.87271118	4.43137264
415.87686157	4.45098019
415.87686157	4.31372547
415.88101196	4.41176462
415.88494873	4.45098019
415.88909912	4.35294104
415.88909912	2.90196085
415.89318848	2.88235283
415.89730835	2.88235283
415.90139771	2.88235283
415.90139771	4.47058821
415.90548706	3.78431368
415.90963745	2.90196085
415.90963745	2.88235283
415.91375732	4.47058821
415.91772461	4.45098019
415.92193604	4.37254906
415.92193604	4.41176462
415.92599487	2.88235283
415.93014526	2.88235283
415.93423462	2.90196085
415.93423462	2.90196085
415.93820190	2.88235283
415.94232178	4.45098019
415.94647217	4.45098019
415.94647217	4.27450991
415.95053101	2.90196085
415.95465088	2.90196085
415.95465088	4.25490189
415.95877075	4.25490189
415.96286011	2.96078420
415.96697998	4.45098019
415.96697998	3.68627453
415.97094727	2.90196085
415.97518921	2.84313726
415.97921753	4.41176462
415.97921753	2.88235283
415.98330688	2.88235283
415.98748779	2.88235283
415.99154663	4.39215708
415.99563599	4.39215708
415.99990845	3.35294127
415.99990845	4.41176462
416.00390625	4.09803915
416.00805664	3.66666675
416.01202393	4.35294104
416.01202393	2.90196085
416.01623535	2.88235283
416.02020264	4.47058821
416.02450562	4.39215708
416.02450562	4.37254906
416.02835083	3.00000000
416.03240967	2.88235283
416.03659058	2.88235283
416.04080200	4.43137264
416.04473877	4.03921556
416.04473877	3.09803915
416.04888916	4.37254906
416.05303955	2.90196085
416.05712891	2.88235283
416.05712891	2.86274505
416.06112671	4.23529434
416.06527710	4.25490189
416.06939697	3.03921580
416.06939697	4.31372547
416.07351685	3.17647052
416.07763672	3.52941179
416.08160400	2.88235283
416.08572388	2.88235283
416.08990479	2.88235283
416.08990479	4.45098019
416.09402466	4.13725471
416.09799194	3.15686274
416.10214233	4.29411745
416.10214233	4.23529434
416.10626221	4.25490189
416.11035156	3.07843137
416.11447144	2.90196085
416.11447144	2.90196085
416.11846924	3.03921580
416.12255859	2.90196085
416.12677002	4.21568632
416.13082886	2.90196085
416.13507080	2.90196085
416.13507080	3.27450991
416.13903809	3.50980401
416.14318848	4.29411745
416.14724731	4.27450991
416.14724731	4.07843161
416.15127563	2.88235283
416.15539551	2.86274505
416.15957642	4.25490189
416.15957642	4.31372547
416.16360474	4.35294104
416.16775513	4.27450991
416.17172241	4.27450991
416.17587280	4.25490189
416.17999268	4.31372547
416.17999268	4.21568632
416.18411255	4.29411745
416.18807983	4.23529434
416.19223022	4.21568632
416.19223022	4.31372547
416.19641113	4.31372547
416.20056152	4.29411745
416.20465088	4.33333349
416.20465088	4.31372547
416.20864868	4.15686274
416.21273804	4.27450991
416.21688843	4.31372547
416.22100830	4.31372547
416.22494507	4.31372547
416.22494507	4.29411745
416.22909546	4.27450991
416.23324585	4.25490189
416.23736572	4.29411745
416.23736572	4.29411745
416.24139404	4.31372547
416.24551392	4.31372547
416.24963379	4.29411745
416.24963379	4.23529434
416.25375366	4.25490189
416.25787354	4.29411745
416.25787354	4.31372547
416.26199341	4.31372547
416.26602173	4.29411745
416.27014160	4.25490189
416.27014160	4.23529434
416.27423096	4.23529434
416.27822876	4.29411745
416.28234863	4.31372547
416.28234863	4.31372547
416.28640747	4.29411745
416.29058838	4.23529434
416.29473877	4.23529434
416.29473877	4.27450991
416.29870605	4.31372547
416.30288696	4.31372547
416.30288696	4.31372547
416.30700684	4.29411745
416.31097412	4.25490189
416.31506348	4.25490189
416.31506348	4.31372547
416.31915283	4.31372547
416.32330322	4.31372547
416.32745361	4.31372547
416.32745361	4.29411745
416.33145142	4.25490189
416.33557129	4.25490189
416.33975220	4.27450991
416.33975220	4.31372547
416.34378052	4.31372547
416.34796143	4.29411745
416.34796143	4.27450991
416.35192871	4.27450991
416.35610962	4.31372547
416.36019897	4.33333349
416.36019897	4.33333349
416.36437988	4.33333349
416.36831665	4.31372547
416.37243652	4.29411745
416.37243652	4.29411745
416.37655640	4.31372547
416.38076782	4.33333349
416.38488770	4.33333349
416.38488770	4.33333349
416.38906860	4.29411745
416.39294434	4.29411745
416.39294434	4.29411745
416.39715576	4.33333349
416.40127563	4.35294104
416.40512085	4.35294104
416.40512085	4.33333349
416.40936279	4.31372547
416.41348267	4.31372547
416.41757202	4.33333349
416.41757202	4.35294104
416.42160034	4.35294104
416.42578125	4.35294104
416.42984009	4.31372547
416.42984009	4.31372547
416.43395996	4.31372547
416.43807983	4.33333349
416.43807983	4.35294104
416.44207764	4.35294104
416.44622803	4.35294104
416.45028687	4.31372547
416.45028687	4.31372547
416.45446777	4.31372547
416.45849609	4.33333349
416.46255493	4.35294104
416.46255493	4.35294104
416.46673584	4.33333349
416.47085571	4.31372547
416.47500610	4.31372547
416.47897339	4.33333349
416.48309326	4.35294104
416.48309326	4.35294104
416.48724365	4.31372547
416.49121094	4.29411745
416.49530029	4.29411745
416.49530029	4.31372547
416.49951172	4.35294104
416.50363159	4.35294104
416.50772095	4.33333349
416.50772095	4.31372547
416.51171875	4.29411745
416.51602173	4.29411745
416.52005005	4.33333349
416.52407837	4.31372547
416.52819824	4.31372547
416.52819824	4.27450991
416.53216553	4.27450991
416.53634644	4.27450991
416.54049683	4.31372547
416.54049683	4.33333349
416.54458618	4.31372547
416.54861450	4.31372547
416.55279541	4.27450991
416.55279541	4.23529434
416.55688477	4.29411745
416.56106567	4.31372547
416.56503296	4.31372547
416.56915283	4.25490189
416.57327271	4.23529434
416.57327271	4.23529434
416.57742310	4.29411745
416.58135986	4.31372547
416.58547974	4.31372547
416.58547974	4.29411745
416.58972168	4.23529434
416.59375000	4.17647076
416.59786987	4.25490189
416.59786987	4.31372547
416.60198975	4.31372547
416.60614014	4.31372547
416.61013794	4.21568632
416.61425781	4.19607830
416.61843872	4.25490189
416.61843872	4.29411745
416.62240601	4.31372547
416.62649536	4.29411745
416.63067627	4.23529434
416.63067627	4.17647076
416.63476563	4.19607830
416.63876343	4.29411745
416.64300537	4.31372547
416.64300537	4.31372547
416.64703369	4.27450991
416.65115356	4.21568632
416.65527344	4.23529434
416.65927124	4.29411745
416.66348267	4.31372547
416.66348267	4.31372547
416.66754150	4.25490189
416.67150879	4.17647076
416.67572021	4.19607830
416.67572021	4.25490189
416.67980957	4.31372547
416.68392944	4.31372547
416.68817139	4.29411745
416.68817139	4.21568632
416.69204712	4.17647076
416.69616699	4.19607830
416.70019531	4.31372547
416.70437622	4.31372547
416.70849609	4.27450991
416.70849609	4.21568632
416.71255493	4.19607830
416.71661377	4.23529434
416.72073364	4.29411745
416.72073364	4.31372547
416.72491455	4.29411745
416.72903442	4.25490189
416.73303223	4.19607830
416.73303223	4.19607830
416.73715210	4.27450991
416.74136353	4.31372547
416.74136353	4.31372547
416.74530029	4.29411745
416.74942017	4.23529434
416.75354004	4.19607830
416.75354004	4.23529434
416.75765991	4.29411745
416.76165771	4.31372547
416.76574707	4.31372547
416.76574707	4.27450991
416.76986694	4.25490189
416.77410889	4.23529434
416.77810669	4.23529434
416.77810669	4.31372547
416.78210449	4.31372547
416.78622437	4.31372547
416.78622437	4.27450991
416.79037476	4.23529434
416.79446411	4.23529434
416.79867554	4.29411745
416.79867554	4.31372547
416.80264282	4.31372547
416.80676270	4.29411745
416.81091309	4.23529434
416.81091309	4.17647076
416.81506348	4.23529434
416.81903076	4.29411745
416.82308960	4.31372547
416.82308960	4.31372547
416.82723999	4.27450991
416.83142090	4.21568632
416.83142090	4.19607830
416.83541870	4.25490189
416.83947754	4.29411745
416.84356689	4.31372547
416.84356689	4.31372547
416.84777832	4.23529434
416.85177612	4.15686274
416.85620117	4.19607830
416.85620117	4.27450991
416.86001587	4.31372547
416.86413574	4.31372547
416.86831665	4.27450991
416.86831665	4.17647076
416.87222290	4.17647076
416.87640381	4.23529434
416.87640381	4.27450991
416.88055420	4.31372547
416.88464355	4.27450991
416.88882446	4.25490189
416.88882446	4.23529434
416.89276123	3.31372547
416.89691162	2.94117641
416.90097046	4.29411745
416.90097046	4.31372547
416.90505981	4.31372547
416.90914917	4.23529434
416.91326904	4.17647076
416.91326904	4.19607830
416.91741943	4.25490189
416.92153931	4.25490189
416.92153931	4.27450991
416.92553711	4.25490189
416.92968750	4.11764717
416.93377686	4.05882359
416.93377686	2.88235283
416.93792725	2.86274505
416.94204712	3.54901958
416.94601440	4.21568632
416.94601440	3.09803915
416.95013428	2.88235283
416.95425415	2.86274505
416.95837402	3.23529410
416.96243286	2.86274505
416.96646118	3.84313726
416.96646118	3.94117641
416.97061157	2.88235283
416.97470093	2.88235283
416.97882080	3.92156863
416.97882080	4.27450991
416.98297119	4.23529434
416.98696899	4.29411745
416.99114990	4.13725471
416.99114990	2.88235283
416.99511719	2.88235283
416.99920654	3.19607854
417.00338745	3.82352948
417.00750732	2.88235283
417.01165771	2.90196085
417.01165771	2.88235283
417.01562500	3.33333325
417.01971436	2.88235283
417.02386475	2.88235283
417.02386475	2.86274505
417.02804565	2.90196085
417.03198242	2.86274505
417.03610229	2.88235283
417.03610229	2.88235283
417.04025269	2.90196085
417.04437256	2.90196085
417.04852295	2.88235283
417.05252075	2.84313726
417.05685425	4.05882359
417.05685425	3.17647052
417.06069946	2.88235283
417.06491089	2.84313726
417.06900024	2.90196085
417.06900024	2.88235283
417.07296753	2.88235283
417.07705688	2.88235283
417.08129883	2.86274505
417.08129883	4.43137264
417.08523560	2.88235283
417.08938599	2.88235283
417.09344482	2.90196085
417.09756470	2.86274505
417.10174561	4.27450991
417.10174561	2.88235283
417.10574341	3.98039222
417.10998535	4.37254906
417.11398315	4.23529434
417.11398315	4.25490189
417.11810303	4.27450991
417.12203979	2.88235283
417.12628174	2.88235283
417.12628174	2.98039222
417.13040161	2.92156863
417.13446045	2.90196085
417.13861084	2.86274505
417.14266968	4.41176462
417.14675903	4.25490189
417.14675903	4.35294104
417.15084839	4.25490189
417.15496826	2.88235283
417.15914917	2.88235283
417.15914917	4.39215708
417.16311646	4.43137264
417.16723633	4.27450991
417.17135620	2.90196085
417.17135620	2.88235283
417.17535400	2.90196085
417.17947388	2.88235283
417.18362427	4.47058821
417.18774414	4.41176462
417.19198608	4.33333349
417.19198608	4.35294104
417.19604492	4.29411745
417.20007324	2.88235283
417.20410156	2.88235283
417.20410156	4.47058821
417.20825195	4.45098019
417.21218872	4.41176462
417.21627808	4.33333349
417.21627808	4.39215708
417.22048950	4.33333349
417.22457886	3.80392146
417.22457886	2.90196085
417.22872925	2.86274505
417.23269653	4.49019623
417.23696899	4.39215708
417.23696899	2.88235283
417.24096680	2.92156863
417.24508667	4.43137264
417.24923706	4.35294104
417.24923706	2.90196085
417.25323486	2.90196085
417.25741577	4.45098019
417.26150513	4.35294104
417.26150513	4.39215708
417.26547241	4.47058821
417.26959229	4.31372547
417.26959229	2.88235283
417.27377319	3.49019599
417.27777100	4.27450991
417.28195190	4.41176462
417.28195190	2.90196085
417.28591919	3.17647052
417.29010010	4.47058821
417.29415894	4.35294104
417.29415894	2.88235283
417.29827881	4.41176462
417.30227661	2.88235283
417.30645752	2.98039222
417.30645752	4.45098019
417.31054688	2.84313726
417.31466675	4.41176462
417.31466675	4.29411745
417.31881714	4.25490189
417.32293701	2.88235283
417.32696533	4.47058821
417.32696533	2.88235283
417.33105469	3.21568632
417.33520508	4.41176462
417.33932495	3.49019599
417.33932495	4.27450991
417.34338379	2.88235283
417.34750366	2.84313726
417.35159302	4.47058821
417.35159302	3.96078420
417.35556030	2.90196085
417.35971069	4.47058821
417.35971069	4.35294104
417.36398315	2.86274505
417.36798096	4.39215708
417.37203979	3.80392146
417.37203979	2.88235283
417.37609863	3.76470590
417.38021851	3.07843137
417.38427734	4.45098019
417.38427734	4.39215708
417.38839722	2.88235283
417.39260864	4.15686274
417.39660645	2.90196085
417.39660645	2.88235283
417.40066528	4.47058821
417.40475464	4.45098019
417.40475464	4.41176462
417.40899658	4.13725471
417.41290283	2.86274505
417.41708374	4.21568632
417.41708374	2.88235283
417.42123413	2.88235283
417.42544556	4.39215708
417.42941284	4.41176462
417.42941284	3.70588231
417.43344116	2.88235283
417.43753052	2.94117641
417.44168091	3.94117641
417.44573975	2.86274505
417.44989014	4.47058821
417.44989014	4.35294104
417.45394897	2.88235283
417.45806885	2.88235283
417.46221924	3.58823538
417.46221924	4.43137264
417.46621704	4.29411745
417.47036743	2.88235283
417.47445679	4.01960802
417.47445679	4.41176462
417.47857666	4.21568632
417.48257446	4.43137264
417.48669434	2.86274505
417.49087524	2.88235283
417.49499512	2.86274505
417.49499512	4.35294104
417.49911499	4.43137264
417.50320435	4.31372547
417.50726318	3.66666675
417.50726318	3.09803915
417.51123047	2.90196085
417.51544189	3.21568632
417.51950073	4.47058821
417.51950073	4.19607830
417.52362061	4.35294104
417.52774048	4.45098019
417.53186035	2.90196085
417.53598022	2.88235283
417.53994751	4.31372547
417.53994751	4.39215708
417.54406738	4.41176462
417.54821777	4.29411745
417.55242920	4.33333349
417.55242920	4.31372547
417.55639648	4.35294104
417.56051636	4.31372547
417.56469727	4.29411745
417.56469727	3.47058821
417.56878662	2.88235283
417.57290649	4.19607830
417.57708740	3.68627453
417.58108521	4.41176462
417.58508301	4.37254906
417.58508301	4.29411745
417.58911133	4.15686274
417.59329224	3.98039222
417.59732056	2.88235283
417.59732056	3.90196085
417.60144043	4.39215708
417.60562134	4.37254906
417.60974121	4.09803915
417.60974121	3.90196085
417.61373901	4.29411745
417.61782837	4.31372547
417.62188721	4.27450991
417.62594604	4.31372547
417.63009644	3.03921580
417.63009644	2.86274505
417.63415527	4.39215708
417.63833618	4.31372547
417.64245605	4.31372547
417.64245605	4.31372547
417.64645386	4.29411745
417.65060425	4.25490189
417.65472412	4.19607830
417.65472412	4.27450991
417.65887451	4.25490189
417.66296387	4.21568632
417.66693115	4.31372547
417.67111206	4.27450991
417.67523193	4.23529434
417.67523193	4.17647076
417.67919922	4.31372547
417.68328857	4.29411745
417.68753052	4.29411745
417.68753052	4.21568632
417.69161987	4.09803915
417.69564819	4.15686274
417.69964600	4.17647076
417.69964600	4.27450991
417.70394897	4.27450991
417.70797729	4.21568632
417.70797729	3.68627453
417.71206665	3.11764717
417.71609497	2.86274505
417.72021484	3.27450991
417.72021484	3.19607854
417.72436523	4.29411745
417.72845459	4.27450991
417.73260498	4.21568632
417.73260498	4.23529434
417.73654175	4.27450991
417.74069214	4.19607830
417.74484253	4.19607830
417.74484253	4.31372547
417.74896240	4.27450991
417.75314331	4.23529434
417.75314331	4.25490189
417.75714111	4.31372547
417.76126099	4.31372547
417.76531982	4.31372547
417.76531982	4.27450991
417.76937866	4.23529434
417.77352905	4.23529434
417.77761841	4.25490189
417.77761841	4.31372547
417.78167725	4.31372547
417.78573608	4.29411745
417.78997803	4.25490189
417.78997803	4.23529434
417.79397583	4.25490189
417.79806519	4.29411745
417.79806519	4.31372547
417.80221558	4.31372547
417.80618286	4.29411745
417.81036377	4.25490189
417.81036377	4.23529434
417.81448364	4.25490189
417.81863403	4.31372547
417.82278442	4.31372547
417.82278442	4.31372547
417.82675171	4.29411745
417.83096313	4.25490189
417.83496094	4.23529434
417.83496094	4.27450991
417.83935547	4.29411745
417.84313965	4.31372547
417.84313965	4.33333349
417.84719849	4.27450991
417.85128784	4.27450991
417.85543823	4.25490189
417.85543823	4.31372547
417.85949707	4.31372547
417.86358643	4.31372547
417.86770630	4.31372547
417.86770630	4.27450991
417.87188721	4.23529434
417.87597656	4.25490189
417.87991333	4.31372547
417.87991333	4.31372547
417.88409424	4.31372547
417.88815308	4.31372547
417.88815308	4.27450991
417.89236450	4.25490189
417.89633179	4.27450991
417.90051270	4.33333349
417.90051270	4.33333349
417.90460205	4.31372547
417.90875244	4.29411745
417.91287231	4.27450991
417.91287231	4.27450991
417.91699219	4.31372547
417.92092896	4.31372547
417.92514038	4.31372547
417.92919922	4.27450991
417.93334961	4.27450991
417.93334961	4.27450991
417.93737793	4.31372547
417.94149780	4.33333349
417.94561768	4.33333349
417.94561768	4.31372547
417.94958496	4.27450991
417.95370483	4.27450991
417.95800781	4.29411745
417.95800781	4.31372547
417.96197510	4.33333349
417.96603394	4.31372547
417.97009277	4.25490189
417.97427368	4.27450991
417.97836304	4.31372547
417.97836304	4.31372547
417.98248291	4.33333349
417.98648071	4.31372547
417.99057007	4.27450991
417.99057007	4.27450991
417.99472046	4.27450991
417.99890137	4.31372547
418.00302124	4.33333349
418.00302124	4.31372547
418.00701904	4.31372547
418.01110840	4.27450991
418.01519775	4.31372547
418.01934814	4.31372547
418.02362061	4.33333349
418.02362061	4.31372547
418.02746582	4.29411745
418.03161621	4.25490189
418.03576660	4.27450991
418.03576660	4.29411745
418.03985596	4.33333349
418.04400635	4.31372547
418.04809570	4.29411745
418.04809570	4.25490189
418.05212402	4.25490189
418.05648804	4.25490189
418.06024170	4.33333349
418.06436157	4.31372547
418.06848145	4.29411745
418.06848145	4.23529434
418.07263184	4.23529434
418.07666016	4.27450991
418.08078003	4.29411745
418.08078003	4.31372547
418.08477783	4.31372547
418.08895874	4.29411745
418.09313965	4.23529434
418.09313965	4.25490189
418.09707642	4.29411745
418.10119629	4.31372547
418.10528564	4.31372547
418.10943604	4.25490189
418.11361694	4.25490189
418.11361694	4.25490189
418.11761475	4.31372547
418.12179565	4.31372547
418.12582397	4.31372547
418.12582397	4.29411745
418.13000488	4.23529434
418.13400269	4.23529434
418.13812256	4.27450991
418.13812256	4.31372547
418.14221191	4.31372547
418.14630127	4.31372547
418.15039063	4.25490189
418.15447998	4.25490189
418.15863037	4.27450991
418.15863037	4.31372547
418.16271973	4.33333349
418.16674805	4.33333349
418.17105103	4.27450991
418.17105103	4.25490189
418.17504883	4.27450991
418.17910767	4.33333349
418.18319702	4.33333349
418.18319702	4.33333349
418.18722534	4.31372547
418.19137573	4.25490189
418.19137573	4.23529434
418.19546509	4.29411745
418.19964600	4.33333349
418.20370483	4.33333349
418.20370483	4.33333349
418.20770264	4.27450991
418.21185303	4.25490189
418.21600342	4.25490189
418.21600342	4.31372547
418.21997070	4.33333349
418.22412109	4.33333349
418.22827148	4.31372547
418.22827148	4.27450991
418.23239136	4.25490189
418.23654175	4.27450991
418.23654175	4.31372547
418.24053955	4.35294104
418.24459839	4.33333349
418.24877930	4.29411745
418.24877930	4.25490189
418.25289917	4.27450991
418.25704956	4.29411745
418.26101685	4.33333349
418.26101685	4.33333349
418.26510620	4.33333349
418.26919556	4.27450991
418.27334595	4.25490189
418.27334595	4.29411745
418.27737427	4.31372547
418.28146362	4.33333349
418.28146362	4.33333349
418.28558350	4.29411745
418.28973389	4.25490189
418.29382324	4.27450991
418.29382324	4.27450991
418.29797363	4.33333349
418.30194092	4.35294104
418.30606079	4.35294104
418.30606079	4.29411745
418.31008911	4.15686274
418.31420898	4.25490189
418.31829834	4.29411745
418.31829834	4.33333349
418.32260132	4.33333349
418.32662964	4.27450991
418.32662964	4.31372547
418.33062744	4.29411745
418.33477783	4.23529434
418.33889771	4.27450991
418.33889771	4.33333349
418.34298706	4.33333349
418.34695435	4.27450991
418.35122681	3.50980401
418.35122681	3.01960778
418.35525513	3.29411769
418.35937500	4.29411745
418.36349487	4.33333349
418.36349487	4.29411745
418.36743164	4.27450991
418.37158203	4.27450991
418.37158203	3.29411769
418.37573242	3.33333325
418.37982178	4.31372547
418.38403320	4.29411745
418.38403320	4.33333349
418.38800049	4.23529434
418.39208984	3.23529410
418.39620972	2.82352948
418.39620972	2.86274505
418.40026855	4.13725471
418.40435791	4.27450991
418.40847778	3.96078420
418.41250610	2.84313726
418.41668701	2.84313726
418.41668701	3.43137264
418.42068481	4.31372547
418.42498779	4.09803915
418.42895508	4.19607830
418.42895508	4.25490189
418.43307495	2.92156863
418.43707275	2.86274505
418.44119263	2.84313726
418.44119263	3.13725495
418.44534302	3.29411769
418.44952393	3.19607854
418.45361328	2.84313726
418.45758057	2.84313726
418.46170044	4.25490189
418.46170044	4.17647076
418.46591187	4.21568632
418.46994019	3.94117641
418.47390747	2.86274505
418.47390747	2.84313726
418.47805786	2.84313726
418.48220825	2.84313726
418.48635864	2.88235283
418.48635864	2.86274505
418.49032593	2.86274505
418.49447632	2.86274505
418.49856567	4.35294104
418.50262451	4.29411745
418.50686646	4.29411745
418.50686646	3.84313726
418.51092529	2.86274505
418.51495361	2.84313726
418.51916504	2.86274505
418.51916504	2.86274505
418.52325439	4.37254906
418.52716064	4.31372547
418.53131104	2.86274505
418.53131104	2.86274505
418.53536987	4.45098019
418.53955078	4.31372547
418.54370117	2.94117641
418.54772949	2.82352948
418.55197144	2.84313726
418.55197144	2.86274505
418.55596924	2.88235283
418.56008911	2.82352948
418.56408691	4.45098019
418.56408691	4.39215708
418.56826782	2.86274505
418.57241821	2.86274505
418.57650757	4.35294104
418.57650757	2.94117641
418.58047485	2.86274505
418.58459473	2.86274505
418.58871460	3.03921580
418.59280396	2.84313726
418.59689331	4.37254906
418.59689331	4.31372547
418.60095215	2.84313726
418.60507202	3.74509811
418.60925293	2.88235283
418.60925293	2.88235283
418.61337280	4.13725471
418.61730957	4.45098019
418.62145996	4.39215708
418.62145996	3.96078420
418.62561035	2.88235283
418.62969971	2.88235283
418.63381958	4.39215708
418.63790894	4.43137264
418.64190674	4.09803915
418.64190674	4.13725471
418.64608765	2.86274505
418.65014648	2.86274505
418.65417480	3.60784316
418.65417480	3.68627453
418.65838623	2.84313726
418.66244507	2.88235283
418.66659546	3.56862736
418.66659546	4.33333349
418.67059326	2.86274505
418.67471313	2.88235283
418.67471313	3.47058821
418.67883301	4.43137264
418.68295288	2.86274505
418.68710327	3.17647052
418.68710327	4.43137264
418.69107056	4.35294104
418.69525146	3.15686274
418.69940186	2.86274505
418.69940186	4.07843161
418.70349121	3.41176462
418.70745850	3.03921580
418.71154785	2.86274505
418.71154785	2.86274505
418.71566772	2.86274505
418.71978760	2.86274505
418.71978760	2.86274505
418.72399902	4.45098019
418.72796631	4.35294104
418.73208618	4.15686274
418.73208618	4.41176462
418.73620605	2.86274505
418.74029541	2.90196085
418.74450684	2.86274505
418.74450684	2.84313726
418.74841309	4.35294104
418.75250244	3.60784316
418.75668335	4.45098019
418.75668335	2.88235283
418.76065063	3.37254906
418.76492310	4.47058821
418.76492310	4.27450991
418.76892090	3.15686274
418.77310181	2.86274505
418.77722168	4.15686274
418.77722168	4.35294104
418.78118896	2.86274505
418.78524780	2.84313726
418.78942871	4.47058821
418.78942871	2.86274505
418.79357910	2.84313726
418.79757690	3.66666675
418.80169678	2.86274505
418.80169678	2.86274505
418.80581665	4.47058821
418.80996704	2.86274505
418.80996704	4.39215708
418.81396484	4.47058821
418.81823730	4.41176462
418.82220459	4.43137264
418.82220459	2.86274505
418.82632446	2.88235283
418.83041382	2.86274505
418.83435059	4.31372547
418.83435059	2.88235283
418.83856201	4.49019623
418.84271240	4.43137264
418.84707642	4.39215708
418.84707642	4.41176462
418.85122681	4.33333349
418.85482788	2.88235283
418.85482788	2.86274505
418.85910034	4.47058821
418.86318970	4.35294104
418.86727905	3.41176462
418.86727905	2.88235283
418.87127686	4.47058821
418.87542725	4.49019623
418.87951660	4.41176462
418.87951660	4.19607830
418.88363647	2.84313726
418.88760376	4.45098019
418.89193726	2.86274505
418.89587402	2.86274505
418.90002441	4.45098019
418.90002441	4.11764717
418.90402222	2.86274505
418.90820313	4.43137264
418.91226196	4.33333349
418.91226196	3.05882359
418.91641235	2.86274505
418.92059326	2.86274505
418.92459106	2.82352948
418.92459106	4.45098019
418.92874146	4.47058821
418.93283081	4.27450991
418.93695068	2.88235283
418.94094849	2.88235283
418.94506836	4.47058821
418.94506836	4.49019623
418.94918823	4.43137264
418.95333862	3.11764717
418.95742798	2.88235283
418.95742798	3.56862736
418.96148682	4.45098019
418.96557617	4.35294104
418.96972656	4.35294104
418.96972656	3.56862736
418.97387695	4.29411745
418.97799683	2.86274505
418.98199463	4.39215708
418.98614502	4.39215708
418.99029541	4.45098019
418.99029541	4.33333349
418.99426270	4.27450991
418.99838257	3.50980401
419.00247192	4.39215708
419.00247192	4.33333349
419.00671387	4.33333349
419.01074219	4.17647076
419.01470947	4.19607830
419.01470947	4.07843161
419.01882935	2.88235283
419.02304077	4.21568632
419.02706909	4.31372547
419.03109741	2.86274505
419.03521729	2.86274505
419.03521729	4.37254906
419.03945923	4.33333349
419.04345703	4.33333349
419.04763794	4.43137264
419.04763794	4.15686274
419.05154419	4.31372547
419.05581665	3.88235283
419.05981445	2.82352948
419.05981445	4.35294104
419.06390381	4.33333349
419.07373047	4.29411745
419.07373047	4.29411745
419.07373047	2.86274505
419.07620239	2.86274505
419.08026123	4.35294104
419.08026123	4.31372547
419.08432007	4.31372547
419.08843994	4.27450991
419.09262085	4.25490189
419.09262085	4.27450991
419.09671021	4.29411745
419.10086060	4.31372547
419.10498047	4.31372547
419.10498047	4.27450991
419.10897827	3.19607854
419.11306763	2.86274505
419.11718750	4.23529434
419.12118530	4.29411745
419.12527466	4.27450991
419.12527466	3.33333325
419.12939453	3.11764717
419.13354492	4.33333349
419.13763428	4.33333349
419.13763428	4.33333349
419.14166260	4.35294104
419.14578247	4.31372547
419.14993286	4.27450991
419.14993286	4.27450991
419.15402222	4.25490189
419.15823364	4.27450991
419.15823364	4.29411745
419.16220093	4.33333349
419.16632080	4.27450991
419.17044067	4.25490189
419.17044067	4.23529434
419.17446899	4.25490189
419.17855835	4.31372547
419.18270874	4.29411745
419.18270874	4.31372547
419.18682861	4.27450991
419.19091797	4.17647076
419.19500732	4.23529434
419.19500732	4.25490189
419.19927979	4.25490189
419.20324707	4.31372547
419.20324707	4.31372547
419.20733643	4.27450991
419.21136475	4.23529434
419.21542358	4.25490189
419.21542358	4.29411745
419.21960449	4.33333349
419.22369385	4.31372547
419.22787476	4.31372547
419.22787476	4.25490189
419.23196411	4.27450991
419.23599243	4.27450991
419.24011230	4.31372547
419.24011230	4.31372547
419.24423218	4.31372547
419.24822998	4.31372547
419.24822998	4.27450991
419.25238037	4.27450991
419.25650024	4.31372547
419.26065063	4.33333349
419.26065063	4.31372547
419.26458740	4.33333349
419.26870728	4.29411745
419.27301025	4.27450991
419.27301025	4.27450991
419.27700806	4.31372547
419.28106689	4.33333349
419.28500366	4.33333349
419.28500366	4.31372547
419.28921509	4.25490189
419.29327393	4.23529434
419.29327393	4.25490189
419.29745483	4.29411745
419.30145264	4.29411745
419.30554199	4.27450991
419.30554199	4.25490189
419.30969238	4.15686274
419.31387329	4.11764717
419.31799316	4.23529434
419.31799316	4.31372547
419.32196045	4.31372547
419.32601929	4.29411745
419.33026123	4.23529434
419.33026123	4.23529434
419.33438110	4.23529434
419.33843994	4.29411745
419.33843994	4.31372547
419.34240723	4.33333349
419.34658813	4.31372547
419.35070801	4.27450991
419.35070801	4.27450991
419.35470581	4.27450991
419.35900879	4.33333349
419.36294556	4.33333349
419.36294556	4.31372547
419.36709595	4.29411745
419.37121582	4.23529434
419.37521362	4.29411745
419.37933350	4.31372547
419.38351440	4.31372547
419.38351440	4.31372547
419.38763428	4.25490189
419.39154053	4.23529434
419.39566040	4.23529434
419.39566040	4.29411745
419.39993286	4.31372547
419.40386963	4.31372547
419.40802002	4.29411745
419.40802002	4.25490189
419.41207886	4.25490189
419.41619873	4.29411745
419.42034912	4.33333349
419.42446899	4.31372547
419.42858887	4.29411745
419.42858887	4.27450991
419.43255615	4.27450991
419.43667603	4.31372547
419.44082642	4.31372547
419.44082642	4.31372547
419.44485474	4.31372547
419.44891357	4.27450991
419.45300293	4.27450991
419.45300293	4.29411745
419.45721436	4.31372547
419.46133423	4.33333349
419.46530151	4.31372547
419.46945190	4.27450991
419.47360229	4.29411745
419.47360229	4.29411745
419.47772217	4.33333349
419.48168945	4.33333349
419.48596191	4.31372547
419.48596191	4.31372547
419.48992920	4.29411745
419.49407959	4.27450991
419.49819946	4.31372547
419.49819946	4.33333349
419.50216675	4.33333349
419.50631714	4.31372547
419.51040649	4.27450991
419.51449585	4.29411745
419.51858521	4.33333349
419.51858521	4.33333349
419.52264404	4.33333349
419.52682495	4.31372547
419.53094482	4.27450991
419.53094482	4.25490189
419.53494263	4.27450991
419.53906250	4.31372547
419.54315186	4.31372547
419.54315186	4.33333349
419.54733276	4.29411745
419.55145264	4.27450991
419.55548096	4.31372547
419.55963135	4.31372547
419.56375122	4.31372547
419.56375122	4.31372547
419.56787109	4.27450991
419.57196045	4.23529434
419.57601929	4.27450991
419.57601929	4.31372547
419.58010864	4.31372547
419.58419800	4.31372547
419.58847046	4.31372547
419.58847046	4.27450991
419.59234619	4.25490189
419.59643555	4.27450991
419.60055542	4.31372547
419.60470581	4.31372547
419.60879517	4.29411745
419.60879517	4.25490189
419.61300659	4.25490189
419.61700439	4.29411745
419.62112427	4.31372547
419.62112427	4.31372547
419.62509155	4.31372547
419.62930298	4.27450991
419.63336182	4.23529434
419.63336182	4.25490189
419.63751221	4.29411745
419.64160156	4.33333349
419.64160156	4.31372547
419.64556885	4.29411745
419.64971924	4.25490189
419.65390015	4.25490189
419.65390015	4.27450991
419.65795898	4.31372547
419.66195679	4.33333349
419.66613770	4.31372547
419.66613770	4.29411745
419.67025757	4.25490189
419.67434692	4.25490189
419.67846680	4.29411745
419.67846680	4.31372547
419.68243408	4.33333349
419.68658447	4.31372547
419.68658447	4.25490189
419.69076538	4.23529434
419.69482422	4.25490189
419.69891357	4.29411745
419.69891357	4.31372547
419.70288086	4.31372547
419.70706177	4.29411745
419.71109009	4.23529434
419.71109009	4.25490189
419.71517944	4.25490189
419.71929932	4.31372547
419.72348022	4.31372547
419.72348022	4.31372547
419.72756958	4.27450991
419.73168945	4.23529434
419.73168945	4.23529434
419.73565674	4.29411745
419.73980713	4.31372547
419.74389648	4.31372547
419.74389648	4.29411745
419.74804688	4.25490189
419.75201416	4.23529434
419.75613403	4.23529434
419.75613403	4.29411745
419.76031494	4.31372547
419.76440430	4.31372547
419.76855469	4.29411745
419.76855469	4.23529434
419.77270508	4.23529434
419.77673340	4.25490189
419.77673340	4.31372547
419.78082275	4.31372547
419.78494263	4.29411745
419.78894043	4.27450991
419.78894043	4.23529434
419.79309082	4.23529434
419.79721069	4.27450991
419.80133057	4.29411745
419.80133057	4.31372547
419.80526733	4.31372547
419.80944824	4.25490189
419.81356812	4.25490189
419.81356812	4.25490189
419.81771851	4.29411745
419.82192993	4.31372547
419.82192993	4.31372547
419.82595825	4.31372547
419.82992554	4.25490189
419.83407593	4.25490189
419.83407593	4.27450991
419.83825684	4.31372547
419.84225464	4.31372547
419.84631348	4.31372547
419.84631348	4.27450991
419.85040283	4.25490189
419.85458374	4.25490189
419.85873413	4.31372547
419.86270142	4.31372547
419.86694336	4.29411745
419.86694336	4.25490189
419.87094116	4.23529434
419.87496948	4.25490189
419.87918091	4.31372547
419.87918091	4.31372547
419.88327026	4.29411745
419.88732910	4.29411745
419.89144897	4.27450991
419.89144897	4.25490189
419.89550781	4.27450991
419.89962769	4.31372547
419.90377808	4.31372547
419.90780640	4.29411745
419.91192627	4.25490189
419.91192627	4.27450991
419.91589355	4.27450991
419.92004395	4.29411745
419.92422485	4.31372547
419.92422485	4.29411745
419.92834473	4.21568632
419.93231201	3.84313726
419.93643188	3.17647052
419.93643188	3.35294127
419.94061279	4.25490189
419.94473267	4.21568632
419.94876099	3.33333325
419.95297241	2.88235283
419.95693970	2.88235283
419.95693970	2.88235283
419.96105957	2.90196085
419.96524048	3.41176462
419.96923828	2.88235283
419.96923828	2.90196085
419.97332764	2.88235283
419.97750854	2.86274505
419.98156738	2.88235283
419.98156738	2.88235283
419.98562622	2.88235283
419.98974609	3.01960778
419.99380493	2.90196085
419.99792480	2.84313726
420.00207520	2.88235283
420.00207520	2.88235283
420.00613403	2.88235283
420.01022339	2.88235283
420.01431274	2.90196085
420.01431274	2.90196085
420.01849365	2.88235283
420.02261353	2.88235283
420.02658081	2.88235283
420.02658081	2.90196085
420.03060913	2.90196085
420.03485107	2.88235283
420.03890991	2.90196085
420.04293823	2.88235283
420.04705811	2.86274505
420.04705811	2.88235283
420.05117798	2.90196085
420.05514526	2.90196085
420.05932617	2.90196085
420.05932617	2.90196085
420.06341553	2.88235283
420.06753540	4.25490189
420.07162476	2.90196085
420.07162476	2.90196085
420.07565308	4.05882359
420.07995605	4.29411745
420.08386230	2.88235283
420.08807373	4.31372547
420.09216309	2.90196085
420.09216309	2.90196085
420.09613037	2.90196085
420.10021973	2.90196085
420.10437012	3.00000000
420.10437012	4.27450991
420.10858154	2.90196085
420.11264038	2.90196085
420.11669922	2.90196085
420.11669922	2.90196085
420.12072754	2.90196085
420.12490845	3.35294127
420.12490845	4.31372547
420.12887573	4.29411745
420.13302612	2.90196085
420.13714600	2.90196085
420.13714600	2.90196085
420.14126587	4.27450991
420.14526367	2.90196085
420.14938354	4.33333349
420.14938354	4.43137264
420.15347290	4.29411745
420.15765381	4.25490189
420.16189575	2.90196085
420.16189575	2.90196085
420.16589355	2.90196085
420.16986084	2.88235283
420.16986084	4.41176462
420.17410278	4.37254906
420.17816162	4.45098019
420.18228149	4.35294104
420.18228149	2.90196085
420.18624878	3.11764717
420.19042969	4.43137264
420.19448853	4.35294104
420.19448853	2.90196085
420.19860840	2.90196085
420.20257568	2.88235283
420.20690918	4.49019623
420.20690918	4.47058821
420.21090698	4.43137264
420.21508789	4.31372547
420.21508789	4.31372547
420.21902466	2.90196085
420.22317505	2.90196085
420.22726440	4.01960802
420.22726440	3.41176462
420.23135376	4.43137264
420.23553467	4.43137264
420.23956299	2.90196085
420.23956299	2.90196085
420.24362183	2.88235283
420.24789429	4.43137264
420.25192261	4.45098019
420.25192261	4.27450991
420.25588989	4.39215708
420.26000977	4.17647076
420.26000977	4.29411745
420.26409912	4.41176462
420.26828003	2.90196085
420.27246094	2.90196085
420.27246094	4.45098019
420.27645874	2.90196085
420.28057861	2.90196085
420.28469849	4.47058821
420.28469849	4.47058821
420.28878784	2.90196085
420.29293823	3.43137264
420.29690552	4.47058821
420.30102539	2.90196085
420.30523682	2.90196085
420.30523682	4.49019623
420.30923462	4.43137264
420.31335449	4.21568632
420.31747437	4.27450991
420.31747437	2.90196085
420.32156372	2.90196085
420.32571411	4.47058821
420.32968140	3.64705873
420.32968140	4.37254906
420.33386230	4.47058821
420.33795166	2.88235283
420.34210205	4.45098019
420.34606934	4.45098019
420.35021973	2.90196085
420.35021973	4.39215708
420.35437012	4.29411745
420.35852051	4.29411745
420.36264038	4.43137264
420.36264038	4.37254906
420.36660767	4.31372547
420.37075806	3.94117641
420.37481689	2.90196085
420.37481689	3.62745094
420.37899780	2.90196085
420.38299561	2.90196085
420.38711548	4.47058821
420.39120483	4.15686274
420.39532471	2.90196085
420.39532471	4.43137264
420.39935303	4.37254906
420.40344238	4.33333349
420.40759277	4.27450991
420.40759277	2.90196085
420.41168213	4.35294104
420.41586304	4.37254906
420.42001343	4.31372547
420.42001343	4.33333349
420.42398071	4.31372547
420.42813110	4.35294104
420.43225098	4.21568632
420.43621826	4.09803915
420.44033813	2.90196085
420.44033813	4.43137264
420.44451904	4.43137264
420.44857788	4.05882359
420.45263672	2.88235283
420.45263672	2.86274505
420.45663452	4.45098019
420.46075439	4.31372547
420.46499634	3.64705873
420.46499634	4.33333349
420.46905518	4.37254906
420.47305298	3.21568632
420.47717285	4.43137264
420.48129272	4.35294104
420.48544312	4.23529434
420.48544312	4.35294104
420.48944092	4.33333349
420.49356079	4.27450991
420.49768066	4.21568632
420.49768066	4.37254906
420.50183105	4.33333349
420.50595093	4.33333349
420.50988770	4.31372547
420.50988770	4.15686274
420.51400757	2.84313726
420.51812744	2.86274505
420.52230835	4.33333349
420.52630615	4.19607830
420.53042603	4.33333349
420.53042603	4.35294104
420.53454590	4.33333349
420.53863525	4.33333349
420.54284668	2.88235283
420.54284668	3.86274505
420.54696655	4.39215708
420.55096436	4.33333349
420.55505371	4.31372547
420.55505371	4.33333349
420.55914307	4.33333349
420.56311035	4.33333349
420.56719971	4.33333349
420.57138062	4.29411745
420.57556152	4.23529434
420.57556152	4.27450991
420.57949829	4.33333349
420.58364868	4.33333349
420.58786011	4.35294104
420.58786011	4.27450991
420.59188843	4.23529434
420.59603882	4.29411745
420.60000610	4.31372547
420.60000610	4.37254906
420.60415649	4.33333349
420.60824585	4.21568632
420.60824585	4.29411745
420.61233521	4.33333349
420.61642456	4.33333349
420.62054443	4.33333349
420.62054443	4.31372547
420.62457275	4.35294104
420.62884521	4.29411745
420.63296509	4.31372547
420.63296509	4.29411745
420.63696289	4.31372547
420.64108276	4.33333349
420.64511108	4.35294104
420.64511108	4.31372547
420.64923096	4.29411745
420.65319824	4.27450991
420.65319824	4.29411745
420.65744019	4.33333349
420.66146851	4.33333349
420.66558838	4.33333349
420.66558838	4.29411745
420.66955566	4.19607830
420.67385864	4.25490189
420.67782593	4.25490189
420.67782593	4.27450991
420.68194580	4.31372547
420.68594360	4.27450991
420.69015503	4.15686274
420.69015503	4.17647076
420.69421387	4.17647076
420.69830322	4.25490189
420.69830322	4.27450991
420.70245361	4.29411745
420.70648193	4.21568632
420.71063232	3.43137264
420.71063232	2.86274505
420.71475220	2.84313726
420.71887207	3.27450991
420.72302246	3.15686274
420.72302246	3.62745094
420.72705078	4.27450991
420.73114014	4.25490189
420.73529053	4.17647076
420.73529053	4.27450991
420.73925781	4.25490189
420.74340820	4.27450991
420.74340820	4.33333349
420.74752808	4.25490189
420.75164795	4.25490189
420.75579834	4.25490189
420.75579834	4.31372547
420.75994873	4.33333349
420.76388550	4.33333349
420.76800537	4.31372547
420.76800537	4.27450991
420.77218628	4.25490189
420.77636719	4.29411745
420.78024292	4.33333349
420.78442383	4.33333349
420.78848267	4.27450991
420.78848267	4.25490189
420.79272461	4.29411745
420.79666138	4.31372547
420.80087280	4.33333349
420.80087280	4.33333349
420.80496216	4.31372547
420.80908203	4.29411745
420.81320190	4.27450991
420.81320190	4.27450991
420.81723022	4.31372547
420.82135010	4.33333349
420.82546997	4.31372547
420.82943726	4.27450991
420.83355713	4.27450991
420.83355713	4.29411745
420.83770752	4.33333349
420.84176636	4.33333349
420.84591675	4.33333349
420.84591675	4.29411745
420.84988403	4.29411745
420.85403442	4.27450991
420.85821533	4.31372547
420.85821533	4.33333349
420.86230469	4.33333349
420.86642456	4.33333349
420.87042236	4.25490189
420.87460327	4.27450991
420.87872314	4.33333349
420.87872314	4.33333349
420.88287354	4.33333349
420.88693237	4.33333349
420.89099121	4.27450991
420.89099121	4.27450991
420.89508057	4.31372547
420.89916992	4.33333349
420.90325928	4.33333349
420.90325928	4.33333349
420.90728760	4.31372547
420.91146851	4.29411745
420.91555786	4.33333349
420.91958618	4.33333349
420.92370605	4.33333349
420.92370605	4.33333349
420.92779541	4.31372547
420.93191528	4.29411745
420.93603516	4.31372547
420.93603516	4.33333349
420.94006348	4.33333349
420.94415283	4.35294104
420.94821167	4.33333349
420.94821167	4.29411745
420.95242310	4.27450991
420.95654297	4.31372547
420.96054077	4.33333349
420.96469116	4.33333349
420.96875000	4.31372547
420.96875000	4.27450991
420.97293091	4.29411745
420.97689819	4.31372547
420.98101807	4.33333349
420.98101807	4.33333349
420.98519897	4.33333349
420.98928833	4.29411745
420.99353027	4.27450991
420.99353027	4.27450991
420.99749756	4.33333349
421.00158691	4.35294104
421.00570679	4.31372547
421.00970459	4.29411745
421.01394653	4.27450991
421.01394653	4.29411745
421.01791382	4.33333349
421.02215576	4.33333349
421.02621460	4.33333349
421.02621460	4.31372547
421.03015137	4.27450991
421.03430176	4.27450991
421.03854370	4.31372547
421.03854370	4.33333349
421.04257202	4.33333349
421.04675293	4.31372547
421.05072021	4.25490189
421.05487061	4.27450991
421.05895996	4.33333349
421.05895996	4.33333349
421.06320190	4.33333349
421.06710815	4.29411745
421.07119751	4.25490189
421.07119751	4.25490189
421.07534790	4.27450991
421.07943726	4.33333349
421.08355713	4.33333349
421.08355713	4.31372547
421.08767700	4.27450991
421.09170532	4.23529434
421.09170532	4.25490189
421.09582520	4.29411745
421.09991455	4.33333349
421.10406494	4.33333349
421.10406494	4.31372547
421.10809326	4.25490189
421.11224365	4.23529434
421.11633301	4.25490189
421.11633301	4.31372547
421.12033081	4.33333349
421.12442017	4.33333349
421.12860107	4.29411745
421.12860107	4.23529434
421.13269043	4.23529434
421.13690186	4.27450991
421.13690186	4.31372547
421.14096069	4.33333349
421.14492798	4.31372547
421.14904785	4.25490189
421.14904785	4.23529434
421.15322876	4.25490189
421.15719604	4.29411745
421.16131592	4.31372547
421.16131592	4.33333349
421.16543579	4.29411745
421.16952515	4.23529434
421.17370605	4.25490189
421.17370605	4.25490189
421.17767334	4.31372547
421.18179321	4.33333349
421.18179321	4.33333349
421.18594360	4.29411745
421.18994141	4.21568632
421.19396973	4.21568632
421.19396973	4.25490189
421.19812012	4.31372547
421.20223999	4.29411745
421.20642090	4.31372547
421.20642090	4.27450991
421.21035767	4.21568632
421.21453857	4.19607830
421.21868896	4.27450991
421.21868896	4.31372547
421.22280884	4.31372547
421.22695923	4.29411745
421.22695923	4.23529434
421.23092651	4.21568632
421.23504639	4.25490189
421.23919678	4.29411745
421.23919678	4.29411745
421.24331665	4.29411745
421.24731445	4.27450991
421.25140381	4.21568632
421.25140381	4.21568632
421.25555420	4.25490189
421.25970459	4.29411745
421.26397705	4.31372547
421.26397705	4.29411745
421.26794434	4.25490189
421.27188110	4.19607830
421.27188110	4.19607830
421.27612305	4.27450991
421.28005981	4.29411745
421.28414917	4.29411745
421.28414917	4.27450991
421.28829956	4.27450991
421.29241943	4.21568632
421.29663086	4.27450991
421.29663086	4.29411745
421.30047607	4.29411745
421.30468750	4.29411745
421.30883789	3.15686274
421.31289673	2.88235283
421.31701660	4.27450991
421.31701660	4.31372547
421.32098389	4.31372547
421.32516479	4.29411745
421.32922363	4.19607830
421.32922363	2.88235283
421.33340454	2.86274505
421.33740234	2.84313726
421.34155273	3.47058821
421.34155273	4.25490189
421.34567261	4.25490189
421.34982300	4.23529434
421.35394287	2.90196085
421.35794067	2.88235283
421.36206055	4.31372547
421.36206055	4.31372547
421.36618042	4.21568632
421.37017822	4.13725471
421.37429810	4.11764717
421.37429810	2.88235283
421.37838745	3.23529410
421.38250732	3.19607854
421.38659668	2.88235283
421.38659668	2.88235283
421.39065552	2.90196085
421.39483643	2.90196085
421.39889526	2.90196085
421.40304565	2.90196085
421.40716553	2.88235283
421.40716553	2.88235283
421.41116333	2.90196085
421.41525269	2.88235283
421.41940308	2.88235283
421.41940308	3.15686274
421.42337036	2.90196085
421.42755127	2.90196085
421.43188477	4.21568632
421.43188477	2.90196085
421.43585205	3.92156863
421.44006348	4.27450991
421.44396973	2.90196085
421.44805908	2.92156863
421.45217896	3.33333325
421.45217896	4.43137264
421.45635986	4.27450991
421.46023560	4.37254906
421.46438599	4.29411745
421.46438599	4.29411745
421.46853638	2.90196085
421.47268677	2.90196085
421.47680664	2.90196085
421.47680664	2.90196085
421.48092651	4.41176462
421.48489380	4.31372547
421.48901367	2.90196085
421.49325562	2.90196085
421.49734497	2.90196085
421.49734497	4.43137264
421.50134277	3.70588231
421.50549316	2.90196085
421.50958252	2.88235283
421.50958252	4.29411745
421.51367188	3.47058821
421.51766968	2.90196085
421.52197266	2.96078420
421.52197266	4.29411745
421.52593994	4.41176462
421.53005981	4.13725471
421.53408813	4.29411745
421.53820801	3.82352948
421.54238892	2.90196085
421.54238892	3.09803915
421.54647827	4.35294104
421.55047607	2.90196085
421.55459595	3.39215684
421.55459595	4.41176462
421.55874634	3.00000000
421.56283569	2.88235283
421.56695557	2.94117641
421.56695557	4.33333349
421.57095337	4.25490189
421.57507324	2.88235283
421.57507324	2.90196085
421.57916260	2.86274505
421.58319092	2.98039222
421.58737183	4.35294104
421.58737183	2.90196085
421.59143066	2.88235283
421.59552002	4.45098019
421.59963989	4.29411745
421.59963989	2.90196085
421.60379028	2.94117641
421.60791016	4.27450991
421.61190796	4.41176462
421.61190796	4.31372547
421.61599731	4.11764717
421.62017822	3.03921580
421.62017822	2.90196085
421.62414551	3.05882359
421.62823486	4.43137264
421.63238525	2.90196085
421.63238525	2.90196085
421.63647461	4.27450991
421.64053345	4.33333349
421.64465332	4.43137264
421.64465332	4.33333349
421.64880371	4.31372547
421.65292358	2.90196085
421.65710449	2.90196085
421.65710449	2.96078420
421.66101074	4.41176462
421.66519165	4.41176462
421.66519165	4.35294104
421.66937256	4.15686274
421.67343140	2.88235283
421.67761230	2.90196085
421.67761230	2.90196085
421.68161011	3.92156863
421.68572998	2.88235283
421.68988037	4.37254906
421.68988037	4.27450991
421.69396973	4.33333349
421.69793701	4.19607830
421.70205688	2.90196085
421.70205688	2.88235283
421.70620728	4.41176462
421.71032715	4.37254906
421.71032715	4.31372547
421.71429443	3.94117641
421.71841431	2.88235283
421.72259521	4.37254906
421.72259521	4.29411745
421.72665405	4.07843161
421.73074341	2.90196085
421.73498535	4.35294104
421.73498535	3.31372547
421.73895264	2.88235283
421.74313354	4.23529434
421.74722290	4.15686274
421.75119019	4.33333349
421.75537109	4.37254906
421.75537109	4.31372547
421.75946045	2.90196085
421.76354980	4.31372547
421.76770020	4.35294104
421.76770020	2.92156863
421.77169800	3.15686274
421.77581787	4.31372547
421.77990723	3.03921580
421.77990723	4.11764717
421.78396606	2.90196085
421.78808594	4.45098019
421.79220581	4.37254906
421.79632568	4.13725471
421.80044556	2.90196085
421.80044556	4.41176462
421.80441284	4.33333349
421.80850220	3.35294127
421.81265259	2.88235283
421.81265259	3.01960778
421.81677246	4.33333349
421.82086182	3.84313726
421.82489014	3.17647052
421.82489014	4.39215708
421.82897949	4.27450991
421.83316040	4.21568632
421.83731079	2.90196085
421.84130859	4.15686274
421.84542847	4.37254906
421.84542847	4.29411745
421.84957886	2.90196085
421.85369873	2.86274505
421.85778809	4.41176462
421.85778809	4.23529434
421.86193848	3.05882359
421.86593628	4.37254906
421.87002563	2.90196085
421.87002563	2.84313726
421.87405396	4.41176462
421.87814331	4.37254906
421.88223267	4.31372547
421.88641357	3.76470590
421.89050293	2.90196085
421.89050293	3.66666675
421.89453125	4.33333349
421.89868164	4.35294104
421.90280151	4.33333349
421.90280151	4.31372547
421.90692139	4.09803915
421.91091919	4.25490189
421.91503906	4.23529434
421.91503906	4.21568632
421.91918945	4.33333349
421.92327881	4.33333349
421.92745972	4.23529434
421.93139648	2.98039222
421.93551636	4.01960802
421.93551636	4.31372547
421.93969727	4.29411745
421.94381714	4.29411745
421.94790649	4.25490189
421.94790649	4.27450991
421.95193481	4.25490189
421.95611572	4.29411745
421.96017456	4.29411745
421.96017456	4.29411745
421.96417236	4.33333349
421.96826172	4.27450991
421.97241211	3.31372547
421.97656250	4.13725471
421.98068237	4.31372547
421.98068237	4.33333349
421.98464966	4.27450991
421.98886108	4.27450991
421.99291992	4.25490189
421.99291992	4.25490189
421.99703979	4.21568632
422.00103760	4.29411745
422.00512695	4.35294104
422.00512695	4.29411745
422.00933838	4.13725471
422.01339722	4.25490189
422.01763916	4.31372547
422.02157593	4.31372547
422.02557373	4.29411745
422.02557373	4.19607830
422.02972412	4.17647076
422.03381348	4.23529434
422.03796387	4.05882359
422.03796387	4.23529434
422.04205322	3.47058821
422.04605103	2.88235283
422.05029297	4.29411745
422.05029297	3.21568632
422.05419922	2.90196085
422.05838013	2.94117641
422.05838013	4.35294104
422.06246948	4.29411745
422.06655884	4.27450991
422.07070923	3.47058821
422.07070923	2.88235283
422.07485962	2.94117641
422.07882690	3.68627453
422.08291626	4.25490189
422.08291626	4.25490189
422.08703613	4.21568632
422.09115601	4.15686274
422.09521484	4.13725471
422.09521484	4.23529434
422.09933472	4.25490189
422.10345459	4.27450991
422.10345459	4.25490189
422.10763550	4.03921556
422.11160278	2.90196085
422.11584473	3.01960778
422.11584473	4.31372547
422.11984253	4.29411745
422.12405396	4.31372547
422.12808228	4.29411745
422.12808228	4.21568632
422.13214111	3.66666675
422.13619995	3.11764717
422.14038086	2.96078420
422.14038086	4.35294104
422.14434814	4.31372547
422.14846802	4.27450991
422.14846802	4.23529434
422.15258789	4.23529434
422.15676880	4.23529434
422.16085815	4.33333349
422.16085815	4.31372547
422.16485596	4.31372547
422.16897583	4.27450991
422.17312622	4.25490189
422.17312622	4.25490189
422.17724609	4.31372547
422.18121338	4.33333349
422.18539429	4.31372547
422.18539429	4.29411745
422.18969727	4.23529434
422.19366455	4.23529434
422.19366455	4.27450991
422.19802856	4.33333349
422.20187378	4.33333349
422.20590210	4.33333349
422.20590210	4.29411745
422.20999146	4.17647076
422.21411133	4.29411745
422.21826172	4.33333349
422.21826172	4.27450991
422.22225952	4.33333349
422.22644043	4.35294104
422.23052979	4.27450991
422.23452759	4.29411745
422.23861694	4.31372547
422.23861694	4.33333349
422.24279785	4.35294104
422.24697876	4.31372547
422.25109863	4.29411745
422.25109863	4.27450991
422.25509644	4.31372547
422.25912476	4.33333349
422.26330566	4.31372547
422.26330566	4.31372547
422.26736450	4.29411745
422.27133179	4.25490189
422.27551270	4.29411745
422.27966309	4.33333349
422.28381348	4.33333349
422.28381348	4.31372547
422.28793335	4.27450991
422.29190063	4.25490189
422.29605103	4.27450991
422.29605103	4.33333349
422.30017090	4.33333349
422.30429077	4.33333349
422.30847168	4.31372547
422.30847168	4.25490189
422.31246948	4.25490189
422.31655884	4.29411745
422.32067871	4.33333349
422.32467651	4.33333349
422.32888794	4.31372547
422.32888794	4.25490189
422.33282471	4.25490189
422.33700562	4.29411745
422.34118652	4.33333349
422.34118652	4.33333349
422.34512329	4.31372547
422.34927368	4.27450991
422.35339355	4.27450991
422.35339355	4.29411745
422.35751343	4.33333349
422.36154175	4.33333349
422.36563110	4.33333349
422.36978149	4.31372547
422.37393188	4.27450991
422.37393188	4.31372547
422.37805176	4.33333349
422.38201904	4.33333349
422.38619995	4.31372547
422.38619995	4.31372547
422.39035034	4.27450991
422.39443970	4.29411745
422.39846802	4.31372547
422.39846802	4.33333349
422.40255737	4.33333349
422.40673828	4.31372547
422.41082764	4.27450991
422.41491699	4.29411745
422.41888428	4.31372547
422.41888428	4.33333349
422.42309570	4.31372547
422.42718506	4.31372547
422.43121338	4.27450991
422.43121338	4.25490189
422.43527222	4.29411745
422.43951416	4.31372547
422.44351196	4.33333349
422.44351196	4.31372547
422.44766235	4.29411745
422.45172119	4.25490189
422.45596313	4.31372547
422.45986938	4.33333349
422.46405029	4.33333349
422.46405029	4.33333349
422.46801758	4.27450991
422.47213745	4.25490189
422.47628784	4.27450991
422.47628784	4.31372547
422.48037720	4.33333349
422.48455811	4.31372547
422.48861694	4.29411745
422.48861694	4.23529434
422.49267578	4.21568632
422.49676514	4.25490189
422.50091553	4.33333349
422.50494385	4.31372547
422.50909424	4.27450991
422.50909424	4.23529434
422.51318359	4.23529434
422.51733398	4.29411745
422.52139282	4.31372547
422.52139282	4.29411745
422.52542114	4.29411745
422.52951050	4.25490189
422.53372192	4.23529434
422.53372192	4.23529434
422.53771973	4.29411745
422.54190063	4.31372547
422.54190063	4.29411745
422.54586792	4.27450991
422.55001831	4.21568632
422.55416870	4.23529434
422.55416870	4.23529434
422.55816650	4.31372547
422.56228638	4.29411745
422.56634521	4.29411745
422.56634521	4.29411745
422.57052612	4.23529434
422.57464600	4.25490189
422.57876587	4.29411745
422.57876587	4.31372547
422.58291626	4.31372547
422.58691406	4.29411745
422.58691406	4.21568632
422.59109497	4.17647076
422.59500122	4.27450991
422.59909058	4.31372547
422.59909058	4.31372547
422.60327148	4.29411745
422.60748291	4.25490189
422.61151123	4.13725471
422.61151123	4.15686274
422.61550903	4.25490189
422.61962891	4.31372547
422.62374878	4.29411745
422.62374878	4.27450991
422.62789917	4.21568632
422.63204956	4.19607830
422.63204956	4.00000000
422.63607788	4.25490189
422.64022827	4.33333349
422.64431763	4.29411745
422.64431763	4.25490189
422.64828491	4.25490189
422.65240479	4.21568632
422.65649414	4.23529434
422.65649414	4.29411745
422.66058350	4.31372547
422.66476440	4.31372547
422.66891479	4.25490189
422.66891479	4.11764717
422.67291260	4.17647076
422.67703247	4.23529434
422.67703247	4.29411745
422.68118286	4.29411745
422.68521118	4.27450991
422.68930054	4.23529434
422.68930054	4.07843161
422.69335938	4.21568632
422.69750977	4.21568632
422.70156860	4.23529434
422.70156860	4.27450991
422.70565796	4.29411745
422.70989990	4.25490189
422.71392822	4.23529434
422.71798706	4.29411745
422.72216797	4.19607830
422.72216797	4.29411745
422.72613525	4.27450991
422.73022461	3.62745094
422.73440552	2.98039222
422.73440552	2.88235283
422.73837280	2.86274505
422.74249268	3.41176462
422.74664307	4.29411745
422.74664307	4.11764717
422.75070190	2.90196085
422.75485229	2.90196085
422.75888062	4.33333349
422.76300049	4.37254906
422.76708984	4.29411745
422.76708984	4.15686274
422.77127075	2.90196085
422.77526855	2.90196085
422.77935791	4.33333349
422.77935791	4.29411745
422.78353882	4.25490189
422.78765869	4.25490189
422.79180908	2.84313726
422.79180908	2.88235283
422.79592896	3.52941179
422.79992676	3.21568632
422.80401611	4.27450991
422.80816650	4.25490189
422.81228638	2.90196085
422.81228638	2.84313726
422.81625366	4.45098019
422.82040405	4.23529434
422.82455444	4.27450991
422.82455444	2.90196085
422.82855225	2.88235283
422.83267212	4.41176462
422.83682251	4.01960802
422.83682251	4.37254906
422.84088135	4.31372547
422.84497070	3.07843137
422.84902954	2.90196085
422.85317993	3.50980401
422.85733032	4.37254906
422.85733032	4.27450991
422.86138916	4.35294104
422.86541748	2.90196085
422.86953735	2.90196085
422.86953735	2.90196085
422.87368774	4.25490189
422.87783813	4.43137264
422.88192749	4.41176462
422.88192749	4.27450991
422.88589478	2.90196085
422.89004517	2.90196085
422.89422607	4.37254906
422.89822388	4.07843161
422.90237427	2.88235283
422.90237427	2.90196085
422.90640259	4.21568632
422.91055298	4.29411745
422.91467285	2.90196085
422.91467285	4.39215708
422.91867065	2.90196085
422.92285156	3.47058821
422.92691040	4.31372547
422.92691040	2.90196085
422.93109131	4.17647076
422.93518066	4.43137264
422.93920898	2.88235283
422.94338989	4.39215708
422.94741821	2.90196085
422.94741821	3.78431368
422.95153809	4.29411745
422.95556641	4.39215708
422.95965576	2.90196085
422.95965576	4.29411745
422.96377563	4.27450991
422.96795654	2.90196085
422.97207642	3.15686274
422.97207642	4.21568632
422.97610474	2.90196085
422.98022461	4.23529434
422.98434448	4.33333349
422.98843384	4.31372547
422.99258423	4.31372547
422.99258423	3.23529410
422.99661255	2.88235283
423.00073242	3.39215684
423.00485229	4.33333349
423.00485229	4.39215708
423.00897217	4.35294104
423.01293945	4.25490189
423.01705933	2.90196085
423.01705933	2.86274505
423.02117920	4.47058821
423.02526855	4.39215708
423.02526855	2.90196085
423.02926636	2.90196085
423.03347778	4.33333349
423.03753662	4.43137264
423.03753662	4.31372547
423.04165649	2.88235283
423.04562378	3.23529410
423.04983521	2.90196085
423.04983521	4.39215708
423.05389404	2.90196085
423.05807495	2.88235283
423.06216431	4.49019623
423.06216431	4.19607830
423.06613159	2.88235283
423.07034302	4.37254906
423.07034302	4.25490189
423.07440186	2.90196085
423.07858276	4.43137264
423.08264160	4.33333349
423.08264160	3.03921580
423.08663940	4.33333349
423.09082031	2.90196085
423.09494019	3.29411769
423.09494019	4.43137264
423.09890747	4.39215708
423.10302734	2.90196085
423.10714722	3.07843137
423.10714722	4.39215708
423.11123657	4.25490189
423.11541748	4.31372547
423.11541748	4.23529434
423.11941528	2.90196085
423.12353516	3.03921580
423.12759399	4.43137264
423.12759399	4.29411745
423.13174438	2.90196085
423.13592529	3.52941179
423.13992310	4.39215708
423.13992310	4.31372547
423.14401245	4.31372547
423.14816284	4.29411745
423.15228271	4.23529434
423.15228271	3.23529410
423.15631104	2.88235283
423.16036987	4.39215708
423.16036987	4.25490189
423.16448975	3.09803915
423.16860962	4.39215708
423.17279053	4.25490189
423.17279053	4.37254906
423.17684937	4.31372547
423.18087769	4.23529434
423.18499756	4.33333349
423.18499756	2.90196085
423.18899536	2.90196085
423.19314575	4.41176462
423.19732666	4.29411745
423.20144653	4.23529434
423.20556641	4.35294104
423.20556641	4.29411745
423.20956421	4.25490189
423.21365356	4.25490189
423.21783447	4.29411745
423.21783447	4.31372547
423.22198486	4.23529434
423.22595215	3.05882359
423.23001099	2.88235283
423.23001099	4.37254906
423.23413086	4.29411745
423.23825073	4.37254906
423.24243164	4.31372547
423.24639893	3.90196085
423.25051880	3.03921580
423.25051880	4.29411745
423.25466919	4.25490189
423.25881958	4.35294104
423.26290894	4.31372547
423.26290894	4.29411745
423.26693726	4.33333349
423.27105713	4.17647076
423.27514648	4.19607830
423.27514648	3.37254906
423.27914429	4.31372547
423.28335571	4.31372547
423.28735352	4.23529434
423.29153442	4.23529434
423.29559326	4.27450991
423.29559326	4.23529434
423.29965210	4.33333349
423.30392456	4.29411745
423.30792236	4.19607830
423.30792236	4.15686274
423.31204224	4.33333349
423.31604004	4.23529434
423.32012939	4.33333349
423.32012939	4.35294104
423.32431030	4.31372547
423.32849121	4.29411745
423.33255005	4.21568632
423.33670044	4.27450991
423.34063721	4.29411745
423.34063721	4.31372547
423.34481812	4.29411745
423.34881592	4.23529434
423.35290527	4.17647076
423.35290527	4.29411745
423.35705566	4.23529434
423.36117554	4.21568632
423.36529541	4.31372547
423.36529541	4.33333349
423.36929321	4.13725471
423.37338257	4.25490189
423.37753296	4.31372547
423.38165283	4.31372547
423.38583374	4.27450991
423.38583374	4.21568632
423.38992310	2.88235283
423.39398193	2.86274505
423.39804077	4.27450991
423.39804077	4.33333349
423.40216064	4.31372547
423.40606689	4.29411745
423.41024780	4.23529434
423.41024780	4.21568632
423.41439819	4.19607830
423.41845703	4.27450991
423.42260742	4.23529434
423.42663574	4.23529434
423.43075562	4.19607830
423.43075562	2.88235283
423.43487549	2.86274505
423.43899536	2.98039222
423.44302368	3.62745094
423.44302368	4.27450991
423.44714355	4.21568632
423.45123291	4.15686274
423.45529175	4.09803915
423.45529175	4.23529434
423.45950317	4.27450991
423.46347046	4.29411745
423.46765137	4.23529434
423.47171021	4.21568632
423.47592163	4.23529434
423.47592163	4.29411745
423.47988892	4.27450991
423.48400879	4.31372547
423.48812866	4.27450991
423.48812866	4.23529434
423.49230957	4.17647076
423.49627686	4.15686274
423.50039673	4.31372547
423.50039673	4.23529434
423.50451660	4.33333349
423.50872803	4.29411745
423.50872803	4.23529434
423.51281738	4.21568632
423.51696777	4.31372547
423.52093506	4.33333349
423.52093506	4.31372547
423.52505493	4.29411745
423.52917480	4.21568632
423.53329468	4.17647076
423.53329468	4.21568632
423.53729248	4.29411745
423.54144287	4.33333349
423.54550171	4.31372547
423.54550171	4.27450991
423.54956055	4.21568632
423.55368042	4.21568632
423.55368042	4.29411745
423.55780029	4.33333349
423.56192017	4.33333349
423.56604004	4.31372547
423.56604004	4.27450991
423.57000732	4.23529434
423.57412720	4.27450991
423.57824707	4.31372547
423.57824707	4.33333349
423.58233643	4.31372547
423.58639526	4.31372547
423.59051514	4.27450991
423.59051514	4.27450991
423.59466553	4.29411745
423.59875488	4.33333349
423.59875488	4.33333349
423.60290527	4.35294104
423.60696411	4.29411745
423.61105347	4.27450991
423.61105347	4.25490189
423.61520386	4.27450991
423.61932373	4.33333349
423.62344360	4.33333349
423.62344360	4.33333349
423.62747192	4.27450991
423.63156128	4.25490189
423.63571167	4.27450991
423.63571167	4.33333349
423.63980103	4.33333349
423.64395142	4.33333349
423.64395142	4.33333349
423.64794922	4.27450991
423.65206909	4.27450991
423.65628052	4.31372547
423.65628052	4.33333349
423.66015625	4.35294104
423.66427612	4.33333349
423.66839600	4.31372547
423.66839600	4.27450991
423.67251587	4.27450991
423.67660522	4.31372547
423.68057251	4.35294104
423.68475342	4.33333349
423.68890381	4.31372547
423.68890381	4.27450991
423.69305420	4.29411745
423.69702148	4.33333349
423.70114136	4.35294104
423.70114136	4.33333349
423.70520020	4.33333349
423.70935059	4.29411745
423.71350098	4.29411745
423.71350098	4.31372547
423.71746826	4.33333349
423.72161865	4.35294104
423.72583008	4.33333349
423.72991943	4.29411745
423.73388672	4.29411745
423.73388672	4.31372547
423.73800659	4.35294104
423.74218750	4.35294104
423.74627686	4.33333349
423.74627686	4.29411745
423.75027466	4.25490189
423.75439453	4.27450991
423.75851440	4.33333349
423.75851440	4.35294104
423.76257324	4.35294104
423.76681519	4.33333349
423.77090454	4.27450991
423.77490234	4.31372547
423.77902222	4.33333349
423.77902222	4.35294104
423.78320313	4.33333349
423.78713989	4.31372547
423.79129028	4.27450991
423.79129028	4.27450991
423.79537964	4.31372547
423.79956055	4.33333349
423.80371094	4.35294104
423.80371094	4.33333349
423.80767822	4.27450991
423.81182861	4.27450991
423.81594849	4.33333349
423.81994629	4.33333349
423.82400513	4.33333349
423.82400513	4.31372547
423.82815552	4.27450991
423.83227539	4.27450991
423.83642578	4.29411745
423.83642578	4.33333349
423.84039307	4.33333349
423.84451294	4.33333349
423.84869385	4.29411745
423.84869385	4.27450991
423.85278320	4.27450991
423.85687256	4.31372547
423.86087036	4.33333349
423.86502075	4.33333349
423.86914063	4.29411745
423.86914063	4.27450991
423.87326050	4.27450991
423.87725830	4.33333349
423.88137817	4.33333349
423.88137817	4.33333349
423.88546753	4.31372547
423.88977051	4.27450991
423.89382935	4.25490189
423.89382935	4.27450991
423.89791870	4.31372547
423.90188599	4.31372547
423.90606689	4.27450991
423.91003418	4.25490189
423.91412354	4.25490189
423.91412354	4.29411745
423.91818237	4.31372547
423.92251587	4.31372547
423.92651367	4.29411745
423.92651367	4.25490189
423.93051147	4.23529434
423.93466187	4.25490189
423.93872070	4.31372547
423.93872070	4.31372547
423.94290161	4.31372547
423.94705200	4.27450991
423.95111084	4.17647076
423.95526123	4.23529434
423.95928955	4.31372547
423.95928955	4.31372547
423.96340942	4.31372547
423.96737671	4.27450991
423.97161865	4.23529434
423.97161865	4.23529434
423.97570801	4.29411745
423.97970581	4.31372547
423.98388672	4.31372547
423.98388672	4.31372547
423.98788452	4.25490189
423.99203491	4.21568632
423.99203491	4.23529434
423.99615479	4.29411745
424.00015259	4.31372547
424.00427246	4.31372547
424.00427246	4.29411745
424.00842285	4.23529434
424.01257324	4.23529434
424.01672363	4.25490189
424.01672363	4.31372547
424.02069092	4.31372547
424.02490234	4.29411745
424.02890015	4.21568632
424.02890015	4.23529434
424.03305054	4.27450991
424.03704834	4.27450991
424.03704834	4.29411745
424.04110718	4.31372547
424.04528809	4.31372547
424.04940796	4.25490189
424.04940796	4.25490189
424.05352783	4.23529434
424.05752563	4.29411745
424.06164551	4.31372547
424.06164551	4.31372547
424.06579590	4.25490189
424.06991577	4.23529434
424.07403564	4.23529434
424.07403564	4.25490189
424.07806396	4.31372547
424.08215332	4.31372547
424.08215332	4.31372547
424.08630371	4.27450991
424.09030151	4.23529434
424.09442139	4.21568632
424.09442139	4.27450991
424.09844971	4.25490189
424.10260010	4.29411745
424.10675049	4.31372547
424.10675049	4.21568632
424.11090088	4.17647076
424.11489868	4.31372547
424.11901855	4.27450991
424.11901855	4.29411745
424.12310791	4.31372547
424.12728882	4.27450991
424.12728882	4.05882359
424.13128662	2.86274505
424.13543701	2.84313726
424.13955688	4.33333349
424.13955688	4.27450991
424.14352417	4.33333349
424.14764404	4.27450991
424.15188599	3.98039222
424.15188599	2.88235283
424.15585327	2.88235283
424.15997314	4.39215708
424.16397095	4.15686274
424.16812134	3.05882359
424.17224121	2.88235283
424.17224121	2.86274505
424.17642212	3.80392146
424.18038940	4.33333349
424.18450928	4.29411745
424.18450928	4.13725471
424.18859863	2.88235283
424.19277954	2.86274505
424.19689941	3.66666675
424.19689941	4.29411745
424.20083618	4.21568632
424.20501709	4.25490189
424.20907593	2.88235283
424.21322632	2.88235283
424.21734619	2.88235283
424.21734619	2.86274505
424.22137451	2.86274505
424.22549438	2.88235283
424.22964478	2.88235283
424.22964478	2.86274505
424.23376465	3.41176462
424.23791504	2.88235283
424.24191284	3.05882359
424.24191284	2.88235283
424.24603271	2.88235283
424.25015259	2.88235283
424.25415039	2.88235283
424.25827026	2.88235283
424.26242065	3.76470590
424.26242065	4.27450991
424.26657104	2.88235283
424.27053833	3.17647052
424.27462769	4.29411745
424.27462769	3.29411769
424.27874756	3.00000000
424.28292847	2.86274505
424.28701782	2.88235283
424.28701782	3.07843137
424.29104614	4.37254906
424.29513550	4.31372547
424.29928589	2.88235283
424.30346680	4.43137264
424.30752563	4.25490189
424.30752563	4.33333349
424.31152344	4.29411745
424.31570435	2.88235283
424.31982422	3.35294127
424.31982422	2.88235283
424.32391357	4.43137264
424.32797241	4.37254906
424.33203125	2.88235283
424.33203125	2.88235283
424.33615112	2.88235283
424.34027100	2.88235283
424.34429932	4.41176462
424.34838867	3.15686274
424.35250854	2.86274505
424.35250854	3.21568632
424.35665894	2.88235283
424.36068726	2.88235283
424.36495972	2.82352948
424.36495972	2.86274505
424.36895752	4.37254906
424.37304688	4.33333349
424.37719727	2.90196085
424.37719727	2.88235283
424.38116455	4.45098019
424.38534546	4.43137264
424.38940430	2.88235283
424.39355469	2.88235283
424.39767456	3.29411769
424.39767456	4.41176462
424.40164185	4.31372547
424.40576172	2.88235283
424.40994263	2.86274505
424.40994263	4.33333349
424.41390991	3.96078420
424.41802979	2.84313726
424.42211914	2.88235283
424.42211914	2.88235283
424.42630005	4.41176462
424.43045044	4.35294104
424.43444824	4.29411745
424.43856812	4.27450991
424.44271851	4.27450991
424.44271851	4.25490189
424.44683838	4.05882359
424.45092773	2.90196085
424.45504761	2.90196085
424.45504761	3.37254906
424.45904541	3.49019599
424.46313477	4.39215708
424.46725464	4.33333349
424.46725464	3.35294127
424.47131348	2.86274505
424.47540283	2.86274505
424.47540283	2.94117641
424.47949219	2.88235283
424.48364258	2.88235283
424.48779297	2.90196085
424.48779297	3.35294127
424.49179077	4.35294104
424.49591064	4.31372547
424.50003052	4.29411745
424.50003052	4.25490189
424.50399780	4.33333349
424.50814819	4.29411745
424.51226807	4.25490189
424.51226807	4.25490189
424.51641846	4.29411745
424.52050781	4.29411745
424.52050781	4.15686274
424.52450562	2.88235283
424.52868652	4.25490189
424.53280640	4.17647076
424.53280640	2.88235283
424.53689575	3.84313726
424.54089355	4.33333349
424.54504395	4.23529434
424.54504395	2.90196085
424.54919434	2.88235283
424.55331421	4.39215708
424.55746460	4.29411745
424.55746460	2.90196085
424.56143188	4.33333349
424.56558228	4.31372547
424.56558228	4.39215708
424.56970215	4.29411745
424.57379150	4.21568632
424.57797241	2.86274505
424.57797241	4.37254906
424.58187866	3.33333325
424.58602905	2.94117641
424.59011841	4.37254906
424.59011841	4.35294104
424.59414673	4.33333349
424.59832764	4.21568632
424.60241699	4.19607830
424.60241699	3.21568632
424.60644531	4.39215708
424.61062622	3.98039222
424.61062622	2.84313726
424.61462402	4.37254906
424.61868286	4.37254906
424.62295532	2.86274505
424.62295532	3.05882359
424.62707520	4.31372547
424.63092041	3.90196085
424.63507080	2.86274505
424.63507080	3.15686274
424.63943481	4.37254906
424.64337158	4.41176462
424.64743042	4.35294104
424.65145874	4.29411745
424.65591431	4.23529434
424.65591431	4.33333349
424.65975952	4.31372547
424.66378784	4.29411745
424.66787720	4.29411745
424.66787720	2.84313726
424.67196655	2.86274505
424.67617798	2.98039222
424.68023682	4.37254906
424.68023682	4.35294104
424.68423462	4.03921556
424.68832397	3.31372547
424.69244385	2.86274505
424.69653320	2.84313726
424.70074463	3.62745094
424.70074463	4.35294104
424.70492554	4.25490189
424.70889282	4.31372547
424.71295166	4.25490189
424.71295166	4.17647076
424.71707153	4.33333349
424.72103882	4.33333349
424.72521973	4.33333349
424.72521973	4.37254906
424.72927856	4.31372547
424.73348999	4.25490189
424.73748779	4.33333349
424.74163818	4.19607830
424.74588013	4.31372547
424.74588013	4.35294104
424.74990845	4.29411745
424.75402832	4.27450991
424.75805664	4.27450991
424.75805664	4.27450991
424.76220703	4.33333349
424.76629639	4.29411745
424.77044678	4.19607830
424.77044678	2.86274505
424.77444458	2.86274505
424.77853394	4.43137264
424.78268433	4.25490189
424.78677368	4.29411745
424.79089355	4.27450991
424.79089355	4.25490189
424.79492188	4.33333349
424.79904175	4.35294104
424.80313110	4.31372547
424.80313110	4.27450991
424.80728149	4.23529434
424.81130981	4.27450991
424.81542969	4.17647076
424.81542969	3.76470590
424.81954956	4.37254906
424.82366943	4.33333349
424.82769775	4.27450991
424.83193970	4.25490189
424.83590698	4.27450991
424.83590698	4.31372547
424.84002686	4.31372547
424.84408569	4.31372547
424.84817505	4.27450991
424.84817505	4.23529434
424.85226440	4.23529434
424.85638428	4.17647076
424.86056519	4.31372547
424.86056519	4.27450991
424.86453247	4.27450991
424.86862183	4.23529434
424.87289429	4.23529434
424.87695313	4.25490189
424.88104248	4.31372547
424.88104248	4.29411745
424.88507080	4.33333349
424.88916016	4.29411745
424.89331055	4.11764717
424.89331055	2.88235283
424.89743042	3.19607854
424.90142822	4.35294104
424.90570068	4.33333349
424.90570068	4.27450991
424.90969849	4.25490189
424.91375732	4.25490189
424.91790771	4.31372547
424.92193604	4.29411745
424.92602539	4.27450991
424.92602539	4.23529434
424.93014526	4.21568632
424.93429565	4.19607830
424.93832397	4.27450991
424.93832397	4.29411745
424.94241333	4.27450991
424.94653320	4.25490189
424.95065308	4.21568632
424.95065308	4.13725471
424.95462036	4.21568632
424.95883179	4.29411745
424.95883179	4.29411745
424.96286011	4.27450991
424.96694946	4.21568632
424.97106934	4.09803915
424.97106934	3.88235283
424.97512817	3.13725495
424.97918701	3.15686274
424.98336792	3.62745094
424.98336792	4.27450991
424.98751831	4.17647076
424.99151611	4.07843161
424.99563599	4.15686274
424.99563599	4.25490189
424.99978638	4.29411745
425.00390625	4.15686274
425.00390625	4.23529434
425.00790405	3.84313726
425.01202393	2.82352948
425.01614380	3.01960778
425.01614380	3.11764717
425.02023315	3.29411769
425.02426147	2.88235283
425.02835083	3.47058821
425.02835083	3.54901958
425.03244019	2.94117641
425.03662109	2.84313726
425.04071045	3.60784316
425.04071045	4.31372547
425.04486084	4.29411745
425.04885864	4.25490189
425.04885864	4.19607830
425.05300903	4.25490189
425.05712891	4.29411745
425.06127930	4.33333349
425.06127930	4.33333349
425.06527710	4.29411745
425.06936646	4.25490189
425.07348633	4.23529434
425.07348633	4.27450991
425.07763672	4.33333349
425.08163452	4.33333349
425.08587646	4.31372547
425.08587646	4.29411745
425.08990479	4.25490189
425.09402466	4.25490189
425.09402466	4.27450991
425.09799194	4.31372547
425.10217285	4.33333349
425.10629272	4.31372547
425.10629272	4.27450991
425.11038208	4.23529434
425.11450195	4.27450991
425.11853027	4.31372547
425.11853027	4.31372547
425.12283325	4.33333349
425.12683105	4.31372547
425.13095093	4.23529434
425.13497925	4.27450991
425.13903809	4.33333349
425.13903809	4.31372547
425.14315796	4.31372547
425.14730835	4.29411745
425.15133667	4.27450991
425.15133667	4.29411745
425.15530396	4.31372547
425.15948486	4.31372547
425.16363525	4.31372547
425.16363525	4.31372547
425.16775513	4.29411745
425.17184448	4.27450991
425.17593384	4.31372547
425.18002319	4.33333349
425.18417358	4.33333349
425.18417358	4.31372547
425.18835449	4.25490189
425.19226074	4.25490189
425.19635010	4.29411745
425.19635010	4.33333349
425.20050049	4.33333349
425.20452881	4.33333349
425.20867920	4.29411745
425.20867920	4.25490189
425.21273804	4.27450991
425.21691895	4.31372547
425.22100830	4.31372547
425.22500610	4.31372547
425.22915649	4.27450991
425.22915649	4.27450991
425.23327637	4.27450991
425.23739624	4.31372547
425.24154663	4.31372547
425.24154663	4.33333349
425.24554443	4.31372547
425.24963379	4.27450991
425.25378418	4.25490189
425.25378418	4.31372547
425.25796509	4.33333349
425.26196289	4.33333349
425.26608276	4.27450991
425.27017212	4.27450991
425.27429199	4.27450991
425.27429199	4.31372547
425.27828979	4.33333349
425.28240967	4.33333349
425.28649902	4.31372547
425.28649902	4.27450991
425.29064941	4.25490189
425.29483032	4.25490189
425.29882813	4.31372547
425.29882813	4.33333349
425.30288696	4.33333349
425.30703735	4.31372547
425.31109619	4.27450991
425.31509399	4.31372547
425.31924438	4.33333349
425.31924438	4.33333349
425.32336426	4.33333349
425.32742310	4.29411745
425.33166504	4.27450991
425.33166504	4.27450991
425.33569336	4.27450991
425.33978271	4.27450991
425.34390259	4.33333349
425.34390259	4.33333349
425.34799194	4.21568632
425.35205078	4.23529434
425.35607910	4.33333349
425.36016846	4.33333349
425.36434937	4.33333349
425.36434937	4.31372547
425.36837769	4.25490189
425.37246704	4.27450991
425.37661743	4.29411745
425.37661743	4.33333349
425.38076782	4.33333349
425.38488770	4.33333349
425.38885498	4.27450991
425.38885498	4.23529434
425.39309692	4.25490189
425.39718628	4.27450991
425.40130615	4.33333349
425.40527344	4.33333349
425.40939331	4.15686274
425.40939331	4.23529434
425.41351318	4.27450991
425.41760254	4.33333349
425.42163086	4.33333349
425.42163086	4.27450991
425.42584229	4.17647076
425.42987061	4.27450991
425.43399048	4.31372547
425.43399048	4.27450991
425.43798828	4.31372547
425.44213867	4.31372547
425.44213867	4.33333349
425.44625854	4.27450991
425.45037842	4.23529434
425.45468140	4.05882359
425.45468140	3.29411769
425.45858765	4.15686274
425.46270752	4.25490189
425.46688843	4.33333349
425.46688843	4.19607830
425.47091675	2.94117641
425.47488403	2.88235283
425.47897339	3.21568632
425.47897339	4.31372547
425.48303223	4.31372547
425.48724365	4.29411745
425.48724365	2.88235283
425.49139404	2.88235283
425.49536133	3.39215684
425.49948120	4.35294104
425.49948120	4.17647076
425.50363159	2.88235283
425.50775146	3.41176462
425.51187134	3.66666675
425.51187134	2.88235283
425.51583862	3.13725495
425.52008057	2.88235283
425.52420044	2.88235283
425.52420044	4.27450991
425.52844238	2.88235283
425.53225708	2.88235283
425.53225708	2.88235283
425.53628540	2.86274505
425.54049683	4.31372547
425.54452515	4.13725471
425.54452515	2.88235283
425.54858398	2.88235283
425.55288696	2.88235283
425.55688477	2.88235283
425.55688477	2.88235283
425.56100464	2.88235283
425.56506348	4.37254906
425.56912231	2.90196085
425.56912231	2.88235283
425.57324219	2.88235283
425.57736206	2.88235283
425.57736206	3.58823538
425.58157349	4.33333349
425.58554077	4.25490189
425.58969116	4.21568632
425.58969116	3.56862736
425.59378052	2.90196085
425.59786987	2.90196085
425.60211182	2.98039222
425.60211182	4.31372547
425.60604858	3.84313726
425.61013794	2.88235283
425.61425781	2.90196085
425.61840820	2.90196085
425.62240601	4.15686274
425.62240601	4.19607830
425.62655640	3.13725495
425.63070679	2.90196085
425.63479614	3.05882359
425.63479614	4.41176462
425.63891602	4.35294104
425.64294434	4.31372547
425.64706421	4.21568632
425.64706421	2.90196085
425.65118408	2.88235283
425.65530396	3.92156863
425.65927124	3.39215684
425.66336060	2.90196085
425.66757202	2.86274505
425.66757202	4.29411745
425.67163086	2.90196085
425.67565918	4.33333349
425.67987061	2.90196085
425.67987061	3.39215684
425.68395996	4.27450991
425.68804932	3.19607854
425.69223022	4.33333349
425.69223022	4.31372547
425.69619751	4.39215708
425.70031738	4.13725471
425.70443726	2.88235283
425.70843506	2.88235283
425.71255493	3.09803915
425.71255493	3.39215684
425.71664429	4.37254906
425.72076416	4.25490189
425.72488403	4.33333349
425.72488403	4.01960802
425.72888184	2.90196085
425.73300171	2.84313726
425.73712158	4.37254906
425.73712158	2.88235283
425.74127197	4.37254906
425.74542236	4.43137264
425.74942017	3.15686274
425.75357056	2.90196085
425.75769043	2.84313726
425.75769043	4.41176462
425.76181030	2.88235283
425.76593018	3.23529410
425.76992798	4.39215708
425.76992798	2.88235283
425.77404785	4.41176462
425.77816772	4.29411745
425.78225708	2.90196085
425.78225708	2.90196085
425.78625488	3.19607854
425.79037476	4.21568632
425.79461670	2.88235283
425.79864502	4.45098019
425.80261230	4.27450991
425.80261230	2.88235283
425.80673218	3.09803915
425.81088257	4.39215708
425.81500244	4.25490189
425.81500244	4.31372547
425.81900024	4.29411745
425.82312012	4.39215708
425.82723999	4.00000000
425.82723999	2.90196085
425.83139038	2.90196085
425.83547974	4.43137264
425.83963013	4.47058821
425.84365845	2.96078420
425.84771729	2.88235283
425.84771729	4.49019623
425.85192871	4.47058821
425.85598755	4.39215708
425.86001587	4.33333349
425.86001587	2.90196085
425.86410522	3.84313726
425.86822510	4.49019623
425.87237549	4.39215708
425.87237549	2.92156863
425.87634277	4.39215708
425.88049316	2.90196085
425.88464355	4.47058821
425.88858032	4.29411745
425.89288330	4.29411745
425.89288330	4.23529434
425.89691162	4.43137264
425.90127563	4.21568632
425.90542603	2.90196085
425.90542603	3.05882359
425.90911865	3.00000000
425.91320801	3.72549009
425.91735840	4.35294104
425.91735840	4.33333349
425.92150879	4.45098019
425.92562866	4.31372547
425.92562866	4.35294104
425.92953491	2.88235283
425.93368530	2.90196085
425.93789673	2.88235283
425.93789673	4.17647076
425.94204712	4.41176462
425.94598389	4.47058821
425.95010376	4.19607830
425.95010376	2.90196085
425.95425415	4.39215708
425.95843506	4.45098019
425.96255493	4.23529434
425.96255493	4.29411745
425.96652222	4.39215708
425.97064209	4.35294104
425.97064209	3.94117641
425.97476196	3.31372547
425.97885132	4.37254906
425.98291016	4.41176462
425.98291016	2.90196085
425.98693848	2.88235283
425.99108887	4.31372547
425.99526978	4.35294104
425.99526978	4.43137264
425.99923706	4.37254906
426.00338745	4.35294104
426.00750732	2.90196085
426.00750732	2.90196085
426.01162720	4.37254906
426.01574707	4.21568632
426.01574707	4.41176462
426.01983643	4.39215708
426.02389526	4.21568632
426.02804565	4.31372547
426.02804565	3.19607854
426.03213501	4.29411745
426.03613281	4.33333349
426.04028320	4.31372547
426.04028320	4.29411745
426.04443359	4.21568632
426.04846191	2.90196085
426.05245972	3.07843137
426.05245972	4.29411745
426.05664063	4.37254906
426.06085205	3.47058821
426.06085205	4.17647076
426.06488037	4.35294104
426.06887817	4.29411745
426.07296753	2.90196085
426.07296753	2.84313726
426.07714844	4.43137264
426.08126831	4.39215708
426.08541870	4.35294104
426.08541870	4.35294104
426.08944702	4.15686274
426.09350586	3.43137264
426.09762573	3.82352948
426.10174561	4.37254906
426.10583496	4.29411745
426.10583496	4.27450991
426.10980225	4.17647076
426.11395264	4.27450991
426.11807251	4.29411745
426.11807251	4.35294104
426.12222290	4.29411745
426.12625122	2.90196085
426.13040161	2.88235283
426.13040161	4.27450991
426.13449097	4.29411745
426.13858032	4.33333349
426.14263916	4.13725471
426.14685059	2.88235283
426.15087891	4.37254906
426.15087891	4.31372547
426.15496826	3.05882359
426.15893555	3.52941179
426.16311646	4.37254906
426.16311646	4.29411745
426.16717529	4.25490189
426.17132568	4.15686274
426.17550659	4.29411745
426.17550659	4.35294104
426.17947388	4.37254906
426.18359375	4.33333349
426.18774414	4.27450991
426.19189453	4.27450991
426.19601440	4.25490189
426.19601440	4.31372547
426.20001221	4.33333349
426.20413208	4.31372547
426.20828247	4.27450991
426.20828247	4.25490189
426.21243286	4.01960802
426.21640015	4.29411745
426.22052002	4.31372547
426.22052002	4.31372547
426.22460938	4.31372547
426.22872925	4.27450991
426.23278809	4.17647076
426.23684692	3.54901958
426.24102783	4.31372547
426.24102783	4.33333349
426.24511719	4.33333349
426.24911499	3.82352948
426.25323486	4.25490189
426.25323486	2.96078420
426.25732422	4.23529434
426.26150513	4.33333349
426.26562500	4.33333349
426.26562500	4.29411745
426.26968384	4.23529434
426.27386475	4.23529434
426.27780151	4.29411745
426.28192139	4.29411745
426.28604126	4.25490189
426.28604126	4.19607830
426.29010010	4.09803915
426.29425049	4.11764717
426.29833984	4.25490189
426.29833984	4.27450991
426.30236816	4.25490189
426.30648804	4.23529434
426.31060791	4.13725471
426.31060791	3.39215684
426.31472778	2.88235283
426.31893921	3.07843137
426.32290649	4.27450991
426.32705688	4.21568632
426.33117676	4.15686274
426.33117676	4.21568632
426.33529663	4.27450991
426.33929443	4.29411745
426.34341431	4.29411745
426.34341431	4.27450991
426.34750366	4.23529434
426.35162354	4.21568632
426.35577393	4.27450991
426.35577393	4.31372547
426.35989380	4.31372547
426.36386108	4.31372547
426.36798096	4.23529434
426.37225342	4.25490189
426.37631226	4.29411745
426.37631226	4.31372547
426.38027954	4.33333349
426.38442993	4.33333349
426.38854980	4.29411745
426.38854980	4.25490189
426.39257813	4.25490189
426.39666748	4.29411745
426.40093994	4.33333349
426.40093994	4.33333349
426.40502930	4.31372547
426.40902710	4.27450991
426.40902710	4.27450991
426.41299438	4.27450991
426.41714478	4.33333349
426.42129517	4.33333349
426.42129517	4.33333349
426.42538452	4.31372547
426.42935181	4.27450991
426.43353271	4.27450991
426.43353271	4.27450991
426.43768311	4.33333349
426.44183350	4.33333349
426.44592285	4.31372547
426.44592285	4.29411745
426.44989014	4.27450991
426.45404053	4.27450991
426.45404053	4.31372547
426.45819092	4.33333349
426.46231079	4.33333349
426.46640015	4.31372547
426.46640015	4.27450991
426.47039795	4.27450991
426.47451782	4.27450991
426.47863770	4.31372547
426.47863770	4.33333349
426.48266602	4.33333349
426.48687744	4.31372547
426.49087524	4.27450991
426.49087524	4.25490189
426.49502563	4.31372547
426.49917603	4.33333349
426.49917603	4.33333349
426.50314331	4.31372547
426.50735474	4.29411745
426.51141357	4.27450991
426.51141357	4.29411745
426.51556396	4.33333349
426.51953125	4.33333349
426.52365112	4.33333349
426.52365112	4.31372547
426.52777100	4.27450991
426.53189087	4.25490189
426.53598022	4.29411745
426.53598022	4.31372547
426.53997803	4.33333349
426.54415894	4.33333349
426.54415894	4.31372547
426.54824829	4.29411745
426.55236816	4.25490189
426.55648804	4.29411745
426.55648804	4.33333349
426.56048584	4.33333349
426.56463623	4.33333349
426.56875610	4.29411745
426.56875610	4.27450991
426.57287598	4.27450991
426.57684326	4.31372547
426.58093262	4.31372547
426.58508301	4.31372547
426.58920288	4.27450991
426.58920288	4.27450991
426.59326172	4.27450991
426.59729004	4.33333349
426.60147095	4.33333349
426.60147095	4.31372547
426.60559082	4.31372547
426.60961914	4.27450991
426.61386108	4.27450991
426.61386108	4.31372547
426.61785889	4.33333349
426.62194824	4.33333349
426.62606812	4.29411745
426.63012695	4.25490189
426.63421631	4.27450991
426.63421631	4.31372547
426.63830566	4.33333349
426.64242554	4.33333349
426.64657593	4.31372547
426.64657593	4.27450991
426.65054321	4.25490189
426.65469360	4.29411745
426.65884399	4.31372547
426.65884399	4.33333349
426.66284180	4.33333349
426.66699219	4.31372547
426.67111206	4.25490189
426.67523193	4.31372547
426.67938232	4.33333349
426.67938232	4.33333349
426.68334961	4.33333349
426.68750000	4.27450991
426.69168091	4.25490189
426.69168091	4.25490189
426.69580078	4.31372547
426.69992065	4.33333349
426.70391846	4.33333349
426.70391846	4.31372547
426.70803833	4.23529434
426.71218872	4.21568632
426.71627808	4.33333349
426.72024536	4.33333349
426.72436523	4.33333349
426.72436523	4.29411745
426.72851563	4.23529434
426.73263550	4.23529434
426.73663330	4.29411745
426.73663330	4.33333349
426.74084473	4.33333349
426.74487305	4.31372547
426.74899292	4.25490189
426.74899292	4.23529434
426.75299072	4.25490189
426.75711060	4.31372547
426.76123047	4.33333349
426.76538086	4.31372547
426.76953125	4.23529434
426.76953125	4.23529434
426.77355957	4.25490189
426.77764893	4.33333349
426.78176880	4.33333349
426.78176880	4.33333349
426.78585815	4.29411745
426.78991699	4.25490189
426.79403687	4.23529434
426.79403687	4.27450991
426.79803467	4.33333349
426.80221558	4.33333349
426.80636597	4.25490189
426.81033325	4.17647076
426.81448364	4.23529434
426.81448364	4.29411745
426.81860352	4.33333349
426.82272339	4.33333349
426.82687378	4.29411745
426.82687378	4.25490189
426.83090210	4.19607830
426.83502197	4.25490189
426.83917236	4.31372547
426.83917236	4.33333349
426.84313965	4.31372547
426.84722900	4.27450991
426.85134888	4.15686274
426.85546875	4.23529434
426.85955811	4.33333349
426.85955811	4.33333349
426.86355591	4.31372547
426.86785889	4.25490189
426.87179565	4.17647076
426.87179565	4.23529434
426.87600708	4.27450991
426.87997437	4.33333349
426.88409424	4.33333349
426.88409424	4.25490189
426.88827515	4.17647076
426.89251709	4.23529434
426.89251709	4.25490189
426.89639282	4.31372547
426.90054321	4.31372547
426.90460205	4.31372547
426.90460205	4.27450991
426.90875244	4.15686274
426.91287231	4.17647076
426.91696167	4.27450991
426.91696167	4.31372547
426.92089844	4.33333349
426.92510986	4.29411745
426.92922974	4.19607830
426.92922974	4.17647076
426.93338013	4.21568632
426.93734741	4.27450991
426.93734741	4.27450991
426.94152832	4.29411745
426.94561768	4.31372547
426.94973755	4.23529434
426.94973755	4.13725471
426.95385742	2.86274505
426.95791626	3.43137264
426.96203613	4.33333349
426.96203613	4.29411745
426.96612549	4.19607830
426.97012329	4.27450991
426.97424316	4.19607830
426.97424316	4.25490189
426.97839355	4.31372547
426.98254395	4.29411745
426.98254395	4.25490189
426.98657227	4.09803915
426.99057007	3.41176462
426.99490356	3.11764717
426.99490356	4.29411745
426.99893188	4.31372547
427.00305176	3.78431368
427.00723267	2.88235283
427.00723267	2.92156863
427.01116943	4.37254906
427.01528931	2.90196085
427.01940918	3.37254906
427.01940918	4.29411745
427.02337646	4.37254906
427.02749634	4.05882359
427.02749634	2.88235283
427.03161621	2.86274505
427.03573608	2.88235283
427.03991699	2.86274505
427.03991699	3.05882359
427.04391479	4.31372547
427.04800415	4.37254906
427.05209351	4.25490189
427.05209351	2.88235283
427.05627441	2.82352948
427.06030273	4.39215708
427.06439209	2.88235283
427.06854248	2.96078420
427.07275391	2.96078420
427.07275391	2.86274505
427.07678223	2.88235283
427.08090210	2.88235283
427.08489990	2.88235283
427.08489990	2.86274505
427.08911133	4.33333349
427.09313965	4.23529434
427.09722900	2.88235283
427.09722900	2.88235283
427.10125732	4.23529434
427.10537720	4.35294104
427.10949707	2.88235283
427.11349487	2.88235283
427.11764526	2.88235283
427.11764526	2.88235283
427.12176514	4.41176462
427.12597656	2.88235283
427.13000488	2.88235283
427.13000488	4.37254906
427.13403320	4.25490189
427.13818359	4.33333349
427.14230347	4.27450991
427.14230347	2.86274505
427.14639282	2.86274505
427.15054321	4.17647076
427.15454102	3.56862736
427.15863037	2.86274505
427.16275024	2.86274505
427.16275024	2.86274505
427.16680908	2.82352948
427.17086792	4.33333349
427.17504883	2.86274505
427.17504883	3.01960778
427.17910767	4.45098019
427.18325806	4.33333349
427.18740845	2.88235283
427.18740845	2.86274505
427.19140625	2.84313726
427.19552612	4.33333349
427.19967651	2.86274505
427.20364380	4.47058821
427.20791626	4.47058821
427.20791626	2.86274505
427.21191406	2.86274505
427.21597290	4.41176462
427.22012329	2.84313726
427.22012329	4.35294104
427.22406006	3.94117641
427.22827148	2.88235283
427.23236084	4.43137264
427.23236084	3.66666675
427.23648071	2.84313726
427.24063110	2.84313726
427.24462891	4.37254906
427.24880981	4.37254906
427.25289917	4.43137264
427.25289917	3.01960778
427.25692749	2.86274505
427.26101685	2.86274505
427.26516724	2.86274505
427.26516724	2.84313726
427.26925659	2.82352948
427.27337646	3.33333325
427.27737427	4.47058821
427.27737427	4.35294104
427.28152466	4.39215708
427.28558350	4.15686274
427.28970337	2.86274505
427.29388428	4.35294104
427.29788208	4.25490189
427.29788208	2.84313726
427.30197144	2.84313726
427.30615234	2.86274505
427.31024170	2.86274505
427.31024170	4.49019623
427.31417847	4.41176462
427.31826782	2.86274505
427.32247925	2.84313726
427.32247925	4.47058821
427.32656860	4.45098019
427.33065796	3.78431368
427.33480835	4.35294104
427.33877563	2.86274505
427.34298706	3.62745094
427.34298706	4.29411745
427.34689331	4.43137264
427.35104370	2.80392146
427.35516357	2.84313726
427.35516357	4.39215708
427.35934448	2.82352948
427.36337280	2.86274505
427.36761475	4.47058821
427.36761475	4.47058821
427.37155151	3.88235283
427.37573242	2.84313726
427.37573242	2.84313726
427.37988281	2.82352948
427.38385010	4.47058821
427.38796997	4.41176462
427.38796997	2.86274505
427.39205933	2.86274505
427.39620972	4.45098019
427.40039063	2.84313726
427.40039063	4.45098019
427.40435791	4.45098019
427.40847778	2.86274505
427.41265869	2.86274505
427.41265869	2.86274505
427.41671753	4.45098019
427.42083740	4.49019623
427.42083740	3.43137264
427.42489624	2.80392146
427.42895508	4.39215708
427.43310547	4.39215708
427.43310547	3.76470590
427.43722534	4.31372547
427.44122314	4.27450991
427.44534302	2.84313726
427.44534302	2.82352948
427.44949341	4.37254906
427.45358276	4.35294104
427.45779419	2.86274505
427.45779419	2.86274505
427.46188354	4.47058821
427.46588135	4.49019623
427.46588135	4.17647076
427.46997070	4.39215708
427.47402954	4.31372547
427.47811890	4.45098019
427.47811890	2.86274505
427.48223877	2.84313726
427.48626709	4.49019623
427.49047852	4.45098019
427.49047852	4.27450991
427.49447632	2.84313726
427.49859619	2.86274505
427.50271606	2.84313726
427.50271606	4.41176462
427.50686646	4.41176462
427.51098633	2.86274505
427.51098633	2.86274505
427.51498413	4.47058821
427.51913452	4.47058821
427.52331543	4.35294104
427.52331543	4.41176462
427.52728271	2.86274505
427.53137207	2.86274505
427.53546143	4.47058821
427.53546143	4.39215708
427.53964233	4.37254906
427.54376221	3.88235283
427.54776001	2.84313726
427.55184937	4.41176462
427.55590820	2.86274505
427.55590820	4.45098019
427.56011963	4.47058821
427.56408691	4.33333349
427.56820679	2.86274505
427.56820679	4.37254906
427.57229614	4.35294104
427.57647705	3.17647052
427.58065796	2.86274505
427.58065796	3.58823538
427.58465576	4.43137264
427.58892822	2.86274505
427.59286499	4.41176462
427.59698486	4.41176462
427.60110474	4.27450991
427.60110474	2.86274505
427.60522461	2.80392146
427.60916138	4.43137264
427.61331177	4.35294104
427.61331177	4.43137264
427.61734009	4.25490189
427.62145996	3.68627453
427.62564087	4.31372547
427.62564087	4.43137264
427.62973022	3.33333325
427.63385010	3.05882359
427.63784790	4.39215708
427.64205933	2.84313726
427.64611816	3.00000000
427.64611816	4.37254906
427.65026855	4.33333349
427.65426636	4.11764717
427.65835571	2.84313726
427.65835571	4.41176462
427.66247559	4.35294104
427.66656494	4.31372547
427.67062378	4.33333349
427.67062378	3.00000000
427.67489624	3.05882359
427.67883301	4.35294104
427.68295288	4.31372547
427.68710327	4.31372547
427.69113159	4.39215708
427.69113159	4.35294104
427.69528198	4.35294104
427.69931030	4.37254906
427.70349121	4.35294104
427.70349121	4.33333349
427.70751953	4.27450991
427.71163940	4.19607830
427.71588135	4.31372547
427.71588135	4.35294104
427.71984863	4.37254906
427.72396851	4.33333349
427.72793579	4.27450991
427.73199463	3.27450991
427.73620605	3.56862736
427.73620605	4.37254906
427.74035645	4.39215708
427.74435425	4.33333349
427.74847412	4.33333349
427.74847412	4.33333349
427.75259399	4.31372547
427.75671387	4.29411745
427.76086426	4.25490189
427.76086426	4.35294104
427.76483154	4.35294104
427.76904297	4.33333349
427.77316284	4.33333349
427.77725220	4.31372547
427.78137207	4.35294104
427.78137207	4.35294104
427.78533936	4.31372547
427.78948975	4.31372547
427.79364014	4.29411745
427.79364014	4.31372547
427.79760742	4.37254906
427.80184937	4.35294104
427.80587769	4.35294104
427.80587769	4.31372547
427.81002808	4.25490189
427.81417847	4.23529434
427.81814575	4.31372547
427.82223511	4.33333349
427.82641602	4.25490189
427.82641602	4.11764717
427.83053589	2.84313726
427.83450317	2.84313726
427.83859253	2.80392146
427.83859253	3.11764717
427.84265137	3.43137264
427.84683228	2.96078420
427.85089111	2.84313726
427.85089111	2.84313726
427.85494995	2.84313726
427.85913086	3.05882359
427.85913086	3.47058821
427.86325073	4.13725471
427.86730957	4.15686274
427.87142944	3.33333325
427.87142944	2.84313726
427.87545776	2.90196085
427.87954712	4.25490189
427.88366699	4.29411745
427.88366699	4.29411745
427.88778687	4.19607830
427.89181519	4.19607830
427.89593506	4.25490189
427.89593506	4.31372547
427.90002441	4.33333349
427.90417480	4.33333349
427.90417480	4.29411745
427.90814209	4.25490189
427.91235352	4.25490189
427.91638184	4.31372547
427.91638184	4.33333349
427.92050171	4.35294104
427.92453003	4.33333349
427.92883301	4.27450991
427.92883301	4.25490189
427.93304443	4.25490189
427.93698120	4.31372547
427.94107056	4.35294104
427.94107056	4.33333349
427.94509888	4.29411745
427.94915771	4.25490189
427.94915771	4.27450991
427.95333862	4.29411745
427.95742798	4.33333349
427.96157837	4.33333349
427.96157837	4.33333349
427.96551514	4.27450991
427.96972656	4.25490189
427.97384644	4.27450991
427.97384644	4.29411745
427.97781372	4.33333349
427.98190308	4.35294104
427.98614502	4.33333349
427.98614502	4.29411745
427.99020386	4.27450991
427.99438477	4.29411745
427.99438477	4.33333349
427.99832153	4.35294104
428.00247192	4.33333349
428.00653076	4.31372547
428.00653076	4.29411745
428.01068115	4.27450991
428.01477051	4.31372547
428.01873779	4.35294104
428.01873779	4.35294104
428.02304077	4.35294104
428.02697754	4.31372547
428.03112793	4.29411745
428.03509521	4.31372547
428.03933716	4.35294104
428.03933716	4.35294104
428.04339600	4.35294104
428.04751587	4.31372547
428.05151367	4.27450991
428.05151367	4.31372547
428.05575562	4.35294104
428.05978394	4.35294104
428.06390381	4.33333349
428.06390381	4.33333349
428.06793213	4.27450991
428.07199097	4.29411745
428.07614136	4.35294104
428.08026123	4.35294104
428.08441162	4.35294104
428.08441162	4.29411745
428.08837891	4.29411745
428.09255981	4.29411745
428.09671021	4.33333349
428.09671021	4.35294104
428.10083008	4.35294104
428.10485840	4.33333349
428.10894775	4.29411745
428.10894775	4.29411745
428.11309814	4.29411745
428.11721802	4.33333349
428.12133789	4.33333349
428.12533569	4.33333349
428.12945557	4.29411745
428.12945557	4.29411745
428.13357544	4.31372547
428.13772583	4.33333349
428.14178467	4.35294104
428.14178467	4.35294104
428.14581299	4.31372547
428.14987183	4.27450991
428.15405273	4.27450991
428.15405273	4.33333349
428.15808105	4.35294104
428.16220093	4.35294104
428.16635132	4.27450991
428.17047119	4.27450991
428.17462158	4.29411745
428.17462158	4.33333349
428.17852783	4.35294104
428.18267822	4.33333349
428.18676758	4.33333349
428.18676758	4.25490189
428.19100952	4.25490189
428.19491577	4.29411745
428.19906616	4.35294104
428.19906616	4.35294104
428.20315552	4.35294104
428.20736694	4.31372547
428.21145630	4.27450991
428.21545410	4.33333349
428.21954346	4.35294104
428.21954346	4.35294104
428.22378540	4.33333349
428.22784424	4.27450991
428.23187256	4.25490189
428.23187256	4.27450991
428.23596191	4.33333349
428.24011230	4.35294104
428.24429321	4.35294104
428.24429321	4.31372547
428.24826050	4.25490189
428.25241089	4.25490189
428.25656128	4.35294104
428.26065063	4.33333349
428.26473999	4.33333349
428.26473999	4.27450991
428.26889038	4.23529434
428.27285767	4.27450991
428.27697754	4.31372547
428.27697754	4.33333349
428.28106689	4.33333349
428.28509521	4.31372547
428.28936768	4.25490189
428.28936768	4.19607830
428.29333496	4.23529434
428.29739380	4.33333349
428.30145264	4.33333349
428.30557251	4.29411745
428.30984497	4.19607830
428.30984497	4.19607830
428.31384277	4.29411745
428.31796265	4.33333349
428.32205200	4.33333349
428.32205200	4.33333349
428.32608032	4.25490189
428.33020020	4.15686274
428.33425903	4.21568632
428.33425903	4.27450991
428.33825684	4.35294104
428.34243774	4.33333349
428.34243774	4.31372547
428.34652710	4.19607830
428.35070801	4.17647076
428.35491943	4.21568632
428.35491943	4.31372547
428.35885620	4.31372547
428.36294556	4.31372547
428.36709595	4.31372547
428.36709595	4.23529434
428.37118530	3.74509811
428.37524414	3.15686274
428.37927246	3.47058821
428.37927246	4.35294104
428.38342285	4.35294104
428.38754272	4.21568632
428.38754272	4.15686274
428.39181519	4.11764717
428.39587402	4.31372547
428.39984131	4.33333349
428.39984131	4.31372547
428.40393066	4.29411745
428.40805054	4.25490189
428.41210938	4.05882359
428.41210938	4.19607830
428.41619873	3.62745094
428.42022705	4.05882359
428.42443848	4.35294104
428.42443848	4.29411745
428.42843628	4.23529434
428.43255615	4.31372547
428.43255615	4.29411745
428.43670654	4.27450991
428.44085693	4.31372547
428.44497681	4.33333349
428.44497681	4.23529434
428.44894409	3.15686274
428.45300293	2.86274505
428.45721436	4.35294104
428.45721436	4.35294104
428.46124268	4.01960802
428.46530151	3.03921580
428.46936035	4.31372547
428.46936035	4.25490189
428.47360229	2.86274505
428.47772217	2.88235283
428.47772217	4.33333349
428.48184204	4.37254906
428.48577881	4.35294104
428.48992920	3.07843137
428.48992920	2.86274505
428.49407959	3.64705873
428.49819946	4.41176462
428.50216675	4.35294104
428.50216675	4.31372547
428.50631714	4.29411745
428.51043701	4.23529434
428.51458740	2.86274505
428.51858521	2.86274505
428.52282715	4.35294104
428.52282715	4.33333349
428.52682495	4.27450991
428.53091431	3.17647052
428.53515625	2.86274505
428.53515625	3.68627453
428.53906250	4.37254906
428.54318237	4.37254906
428.54724121	4.25490189
428.54724121	3.07843137
428.55145264	2.84313726
428.55545044	2.84313726
428.55957031	4.29411745
428.56372070	2.86274505
428.56781006	3.33333325
428.56781006	4.35294104
428.57192993	4.35294104
428.57592773	4.39215708
428.58007813	4.41176462
428.58007813	3.33333325
428.58413696	2.84313726
428.58828735	4.37254906
428.59228516	4.27450991
428.59228516	4.27450991
428.59643555	4.23529434
428.60058594	4.33333349
428.60473633	2.86274505
428.60888672	4.09803915
428.61285400	4.27450991
428.61285400	2.80392146
428.61697388	4.39215708
428.62109375	4.39215708
428.62512207	4.35294104
428.62512207	2.86274505
428.62918091	2.86274505
428.63333130	4.35294104
428.63751221	3.56862736
428.63751221	3.13725495
428.64163208	4.45098019
428.64562988	3.52941179
428.64984131	2.86274505
428.65383911	2.86274505
428.65795898	2.84313726
428.65795898	4.43137264
428.66201782	4.43137264
428.66610718	4.35294104
428.67019653	4.29411745
428.67019653	4.23529434
428.67434692	3.05882359
428.67889404	2.84313726
428.68237305	3.80392146
428.68237305	4.33333349
428.68655396	2.86274505
428.69085693	2.86274505
428.69482422	4.43137264
428.69882202	3.60784316
428.70297241	2.86274505
428.70297241	2.84313726
428.70706177	4.35294104
428.71112061	4.33333349
428.71527100	4.21568632
428.71527100	2.84313726
428.71920776	3.27450991
428.72351074	4.41176462
428.72756958	4.13725471
428.72756958	2.86274505
428.73171997	2.84313726
428.73583984	4.39215708
428.73980713	4.31372547
428.74398804	2.84313726
428.74813843	2.84313726
428.74813843	3.13725495
428.75213623	2.86274505
428.75625610	2.84313726
428.76040649	4.45098019
428.76040649	4.39215708
428.76449585	2.86274505
428.76861572	2.86274505
428.77258301	2.86274505
428.77258301	2.86274505
428.77685547	4.03921556
428.78082275	4.43137264
428.78500366	4.37254906
428.78900146	4.25490189
428.79312134	2.86274505
428.79312134	2.84313726
428.79721069	4.41176462
428.80136108	4.41176462
428.80548096	4.37254906
428.80548096	3.03921580
428.80947876	3.07843137
428.81356812	2.86274505
428.81771851	2.86274505
428.81771851	4.39215708
428.82180786	4.41176462
428.82592773	3.07843137
428.82592773	3.29411769
428.82995605	3.31372547
428.83404541	2.84313726
428.83819580	4.39215708
428.83819580	4.37254906
428.84219360	4.43137264
428.84631348	4.29411745
428.85046387	2.84313726
428.85046387	3.39215684
428.85455322	4.39215708
428.85873413	4.33333349
428.86285400	4.33333349
428.86285400	4.37254906
428.86685181	2.86274505
428.87103271	3.17647052
428.87103271	4.43137264
428.87509155	4.31372547
428.87908936	2.86274505
428.88317871	2.82352948
428.88317871	4.31372547
428.88757324	4.19607830
428.89144897	2.86274505
428.89556885	3.05882359
428.89556885	4.47058821
428.89953613	4.35294104
428.90368652	4.41176462
428.90780640	4.37254906
428.90780640	4.37254906
428.91195679	3.33333325
428.91589355	2.84313726
428.91589355	2.86274505
428.92007446	3.09803915
428.92422485	4.45098019
428.92834473	4.29411745
428.92834473	2.84313726
428.93234253	2.82352948
428.93646240	4.41176462
428.94061279	4.29411745
428.94061279	3.80392146
428.94473267	3.64705873
428.94882202	4.39215708
428.95278931	4.27450991
428.95278931	4.29411745
428.95697021	4.21568632
428.96102905	2.86274505
428.96102905	4.43137264
428.96517944	4.27450991
428.96917725	2.86274505
428.97332764	3.17647052
428.97332764	4.43137264
428.97744751	4.23529434
428.98153687	2.86274505
428.98562622	3.11764717
428.98562622	4.39215708
428.98983765	4.37254906
428.99380493	4.41176462
428.99795532	3.07843137
429.00210571	4.45098019
429.00613403	4.37254906
429.00613403	4.00000000
429.01025391	2.86274505
429.01431274	3.07843137
429.01849365	4.05882359
429.01849365	4.23529434
429.02246094	4.35294104
429.02661133	4.33333349
429.03082275	4.31372547
429.03082275	4.35294104
429.03488159	4.37254906
429.03903198	4.27450991
429.04296875	4.31372547
429.04699707	2.84313726
429.05117798	2.86274505
429.05117798	3.23529410
429.05529785	4.41176462
429.05932617	3.90196085
429.06347656	2.84313726
429.06347656	4.41176462
429.06759644	4.31372547
429.07165527	4.33333349
429.07583618	2.86274505
429.07583618	3.05882359
429.07986450	4.17647076
429.08401489	4.37254906
429.08810425	4.35294104
429.09222412	4.17647076
429.09619141	4.31372547
429.09619141	4.35294104
429.10037231	4.35294104
429.10446167	4.35294104
429.10852051	4.29411745
429.10852051	4.25490189
429.11254883	4.19607830
429.11682129	4.21568632
429.12081909	4.33333349
429.12081909	4.35294104
429.12490845	4.19607830
429.12905884	2.86274505
429.13302612	3.01960778
429.13717651	4.33333349
429.14138794	4.31372547
429.14138794	4.33333349
429.14547729	4.33333349
429.14950562	4.29411745
429.15359497	4.19607830
429.15359497	2.80392146
429.15771484	4.35294104
429.16183472	4.33333349
429.16592407	4.29411745
429.16592407	4.29411745
429.16989136	3.49019599
429.17407227	2.80392146
429.17816162	4.27450991
429.18234253	4.35294104
429.18634033	4.33333349
429.18634033	4.29411745
429.19046021	4.27450991
429.19458008	4.29411745
429.19869995	4.33333349
429.19869995	4.35294104
429.20281982	4.31372547
429.20681763	4.23529434
429.21087646	4.19607830
429.21087646	4.29411745
429.21502686	4.29411745
429.21911621	4.31372547
429.22320557	4.31372547
429.22726440	4.27450991
429.23144531	4.25490189
429.23144531	4.23529434
429.23559570	4.29411745
429.23956299	4.29411745
429.24383545	4.31372547
429.24383545	4.31372547
429.24783325	4.25490189
429.25198364	4.25490189
429.25610352	4.23529434
429.25610352	4.29411745
429.26007080	4.31372547
429.26416016	4.33333349
429.26837158	4.23529434
429.27249146	4.23529434
429.27645874	4.27450991
429.27645874	4.31372547
429.28057861	4.31372547
429.28472900	4.27450991
429.28881836	4.23529434
429.28881836	4.17647076
429.29278564	4.15686274
429.29690552	4.27450991
429.30108643	4.31372547
429.30108643	4.31372547
429.30514526	4.27450991
429.30935669	4.17647076
429.30935669	4.17647076
429.31332397	4.19607830
429.31750488	4.27450991
429.32159424	4.29411745
429.32159424	4.27450991
429.32577515	4.23529434
429.32983398	2.86274505
429.33383179	2.86274505
429.33383179	2.84313726
429.33831787	3.00000000
429.34207153	3.41176462
429.34613037	3.52941179
429.34613037	2.86274505
429.35015869	2.88235283
429.35424805	2.86274505
429.35424805	2.86274505
429.35842896	2.88235283
429.36257935	2.92156863
429.36657715	2.86274505
429.36657715	2.88235283
429.37072754	2.88235283
429.37487793	2.86274505
429.37896729	2.86274505
429.37896729	2.82352948
429.38296509	2.84313726
429.38708496	2.86274505
429.39117432	2.88235283
429.39117432	2.86274505
429.39529419	2.86274505
429.39941406	2.84313726
429.39941406	2.90196085
429.40338135	2.84313726
429.40753174	2.86274505
429.41165161	2.86274505
429.41165161	2.86274505
429.41586304	2.86274505
429.41979980	3.54901958
429.42398071	4.29411745
429.42398071	4.25490189
429.42810059	4.21568632
429.43215942	4.15686274
429.43630981	4.23529434
429.43630981	4.29411745
429.44030762	4.31372547
429.44439697	4.29411745
429.44439697	4.25490189
429.44851685	4.23529434
429.45269775	4.23529434
429.45684814	4.27450991
429.45684814	4.31372547
429.46072388	4.31372547
429.46487427	4.31372547
429.46896362	4.25490189
429.46896362	4.21568632
429.47308350	4.23529434
429.47717285	4.31372547
429.48132324	4.31372547
429.48544312	4.27450991
429.48953247	4.23529434
429.48953247	4.25490189
429.49371338	4.27450991
429.49761963	4.31372547
429.50177002	4.31372547
429.50177002	4.31372547
429.50588989	4.27450991
429.50985718	4.25490189
429.51406860	4.25490189
429.51406860	4.29411745
429.51818848	4.31372547
429.52224731	4.31372547
429.52648926	4.27450991
429.53033447	4.25490189
429.53451538	4.25490189
429.53451538	4.31372547
429.53860474	4.31372547
429.54275513	4.31372547
429.54672241	4.31372547
429.54672241	4.25490189
429.55093384	4.25490189
429.55496216	4.27450991
429.55917358	4.31372547
429.55917358	4.33333349
429.56314087	4.31372547
429.56765747	4.27450991
429.57147217	4.25490189
429.57556152	4.31372547
429.57962036	4.31372547
429.57962036	4.31372547
429.58377075	4.31372547
429.58770752	4.27450991
429.59188843	4.25490189
429.59188843	4.27450991
429.59600830	4.31372547
429.60006714	4.31372547
429.60415649	4.31372547
429.60415649	4.29411745
429.60833740	4.25490189
429.61245728	4.27450991
429.61639404	4.31372547
429.62054443	4.31372547
429.62484741	4.31372547
429.62484741	4.29411745
429.62884521	4.23529434
429.63296509	4.25490189
429.63693237	4.31372547
429.63693237	4.31372547
429.64105225	4.31372547
429.64517212	4.31372547
429.64932251	4.27450991
429.64932251	4.27450991
429.65332031	4.27450991
429.65747070	4.31372547
429.66168213	4.31372547
429.66571045	4.31372547
429.66983032	4.27450991
429.66983032	4.27450991
429.67395020	4.29411745
429.67797852	4.31372547
429.68212891	4.33333349
429.68212891	4.31372547
429.68627930	4.27450991
429.69024658	4.25490189
429.69436646	4.25490189
429.69436646	4.31372547
429.69851685	4.33333349
429.70269775	4.33333349
429.70669556	4.25490189
429.71081543	4.25490189
429.71484375	4.27450991
429.71484375	4.31372547
429.71896362	4.31372547
429.72290039	4.33333349
429.72714233	4.29411745
429.72714233	4.23529434
429.73120117	4.25490189
429.73535156	4.29411745
429.73944092	4.31372547
429.73944092	4.31372547
429.74346924	4.31372547
429.74755859	4.25490189
429.74755859	4.25490189
429.75170898	4.25490189
429.75579834	4.31372547
429.75994873	4.31372547
429.75994873	4.31372547
429.76394653	4.31372547
429.76812744	4.25490189
429.77233887	4.21568632
429.77233887	4.25490189
429.77636719	4.31372547
429.78036499	4.33333349
429.78445435	4.33333349
429.78445435	4.29411745
429.78857422	4.17647076
429.79275513	4.23529434
429.79275513	4.27450991
429.79672241	4.31372547
429.80078125	4.31372547
429.80490112	4.31372547
429.80490112	4.25490189
429.80911255	4.23529434
429.81307983	4.23529434
429.81719971	4.29411745
429.81719971	4.31372547
429.82131958	4.33333349
429.82550049	4.31372547
429.82958984	4.23529434
429.82958984	4.23529434
429.83358765	4.25490189
429.83779907	4.31372547
429.83779907	4.31372547
429.84182739	4.31372547
429.84594727	4.25490189
429.85012817	4.23529434
429.85012817	4.23529434
429.85409546	4.25490189
429.85818481	4.31372547
429.86230469	4.27450991
429.86230469	4.27450991
429.86639404	4.25490189
429.87045288	4.27450991
429.87463379	4.23529434
429.87463379	4.29411745
429.87866211	4.31372547
429.88284302	4.31372547
429.88284302	4.27450991
429.88684082	3.54901958
429.89093018	2.86274505
429.89505005	2.88235283
429.89505005	3.78431368
429.89923096	4.25490189
