811.21844482	4.31372547
811.21844482	4.29411745
811.22247314	4.29411745
811.22656250	4.31372547
811.23065186	4.31372547
811.23065186	4.33333349
811.23480225	4.33333349
811.23895264	4.31372547
811.24310303	4.27450991
811.24310303	4.27450991
811.24719238	4.31372547
811.25122070	4.31372547
811.25122070	4.31372547
811.25537109	4.29411745
811.25933838	4.23529434
811.26342773	4.23529434
811.26342773	4.25490189
811.26763916	4.27450991
811.27178955	4.29411745
811.27575684	4.27450991
811.27575684	4.21568632
811.27972412	4.13725471
811.28399658	4.11764717
811.28808594	4.23529434
811.28808594	4.27450991
811.29223633	4.29411745
811.29632568	4.27450991
811.29632568	4.25490189
811.30029297	4.21568632
811.30450439	4.23529434
811.30859375	4.25490189
811.30859375	4.25490189
811.31262207	4.25490189
811.31677246	4.23529434
811.32086182	4.00000000
811.32086182	2.88235283
811.32495117	2.86274505
811.32904053	2.84313726
811.33325195	2.88235283
811.33325195	2.86274505
811.33715820	2.88235283
811.34130859	2.88235283
811.34130859	2.88235283
811.34545898	2.88235283
811.34942627	2.88235283
811.35357666	2.88235283
811.35357666	2.88235283
811.35766602	2.88235283
811.36181641	2.88235283
811.36596680	2.90196085
811.36596680	2.88235283
811.36993408	2.90196085
811.37408447	2.90196085
811.37823486	2.90196085
811.38238525	2.90196085
811.38647461	2.90196085
811.38647461	2.90196085
811.39044189	2.90196085
811.39459229	2.88235283
811.39868164	2.90196085
811.39868164	2.90196085
811.40270996	2.90196085
811.40679932	2.90196085
811.41101074	2.88235283
811.41101074	2.90196085
811.41516113	2.90196085
811.41925049	2.90196085
811.42321777	2.90196085
811.42736816	2.88235283
811.43151855	2.88235283
811.43151855	2.88235283
811.43560791	2.88235283
811.43957520	2.90196085
811.44372559	2.88235283
811.44372559	2.88235283
811.44781494	2.88235283
811.45196533	2.88235283
811.45599365	2.88235283
811.45599365	2.88235283
811.46014404	2.86274505
811.46411133	3.09803915
811.46832275	4.35294104
811.47247314	4.37254906
811.47656250	4.39215708
811.47656250	4.39215708
811.48059082	4.41176462
811.48468018	4.41176462
811.48883057	4.43137264
811.48883057	4.45098019
811.49279785	4.45098019
811.49694824	4.45098019
811.50122070	4.45098019
811.50122070	4.45098019
811.50524902	4.43137264
811.50933838	4.43137264
811.51330566	4.43137264
811.51745605	4.43137264
811.52148438	4.43137264
811.52148438	4.43137264
811.52563477	4.43137264
811.52972412	4.43137264
811.53375244	4.43137264
811.53375244	4.41176462
811.53796387	4.41176462
811.54205322	4.43137264
811.54614258	4.41176462
811.54614258	4.39215708
811.55023193	4.39215708
811.55432129	4.41176462
811.55841064	4.41176462
811.56250000	4.41176462
811.56665039	4.41176462
811.56665039	4.39215708
811.57061768	4.37254906
811.57476807	4.35294104
811.57885742	4.33333349
811.57885742	4.31372547
811.58288574	4.31372547
811.58721924	4.33333349
811.59118652	4.33333349
811.59118652	4.35294104
811.59533691	4.37254906
811.59942627	4.37254906
811.60345459	4.37254906
811.60754395	4.43137264
811.61169434	4.39215708
811.61169434	4.41176462
811.61590576	4.41176462
811.61987305	4.41176462
811.62396240	4.41176462
811.62396240	4.41176462
811.62811279	4.41176462
811.63226318	4.41176462
811.63635254	4.41176462
811.63635254	4.41176462
811.64031982	4.41176462
811.64447021	4.37254906
811.64447021	4.33333349
811.64855957	4.31372547
811.65270996	4.27450991
811.65667725	4.29411745
811.65667725	4.41176462
811.66082764	4.41176462
811.66497803	4.41176462
811.66906738	4.39215708
811.66906738	4.39215708
811.67327881	4.45098019
811.67724609	4.47058821
811.68139648	4.45098019
811.68139648	4.45098019
811.68548584	4.45098019
811.68957520	4.45098019
811.68957520	4.43137264
811.69360352	4.45098019
811.69769287	4.45098019
811.70184326	4.45098019
811.70184326	4.47058821
811.70599365	4.47058821
811.70996094	4.47058821
811.71417236	4.47058821
811.71417236	4.47058821
811.71820068	4.47058821
811.72235107	4.47058821
811.72650146	4.47058821
811.72650146	4.47058821
811.73046875	4.45098019
811.73461914	4.45098019
811.73461914	4.45098019
811.73876953	4.47058821
811.74285889	4.47058821
811.74688721	4.45098019
811.74688721	4.45098019
811.75097656	4.45098019
811.75512695	4.45098019
811.75921631	4.45098019
811.75921631	4.45098019
811.76318359	4.43137264
811.76733398	4.41176462
811.77142334	4.39215708
811.77142334	4.41176462
811.77557373	4.43137264
811.77966309	4.43137264
811.77966309	4.41176462
811.78369141	4.37254906
811.78790283	4.29411745
811.79199219	4.25490189
811.79199219	4.25490189
811.79614258	4.29411745
811.80029297	4.31372547
811.80426025	4.23529434
811.80426025	3.54901958
811.80841064	2.90196085
811.81250000	2.90196085
811.81665039	2.90196085
811.82055664	2.88235283
811.82470703	2.88235283
811.82470703	2.90196085
811.82879639	2.90196085
811.83300781	2.90196085
811.83697510	2.90196085
811.83697510	2.90196085
811.84118652	2.88235283
811.84515381	2.88235283
811.84930420	2.90196085
811.84930420	2.90196085
811.85333252	2.90196085
811.85742188	2.90196085
811.86157227	2.90196085
811.86572266	2.90196085
811.86981201	2.90196085
811.86981201	2.92156863
811.87377930	2.94117641
811.87799072	2.94117641
811.88208008	2.92156863
811.88208008	2.92156863
811.88616943	2.94117641
811.89019775	2.92156863
811.89434814	2.94117641
811.89434814	2.92156863
811.89843750	2.92156863
811.90258789	2.92156863
811.90667725	2.90196085
811.91064453	2.90196085
811.91479492	2.90196085
811.91479492	2.90196085
811.91894531	2.92156863
811.92309570	2.94117641
811.92718506	2.94117641
811.92718506	2.94117641
811.93121338	2.92156863
811.93530273	2.94117641
811.93945313	3.00000000
811.93945313	3.01960778
811.94348145	2.96078420
811.94757080	2.94117641
811.95166016	2.96078420
811.95587158	2.96078420
811.96002197	2.94117641
811.96002197	2.94117641
811.96392822	2.94117641
811.96801758	2.94117641
811.97216797	2.94117641
811.97216797	2.94117641
811.97631836	2.94117641
811.98028564	2.92156863
811.98437500	2.92156863
811.98437500	2.94117641
811.98858643	2.94117641
811.99267578	2.92156863
811.99682617	2.92156863
812.00085449	2.90196085
812.00500488	2.92156863
812.00500488	2.90196085
812.00909424	2.92156863
812.01318359	2.90196085
812.01721191	2.92156863
812.01721191	2.90196085
812.02136230	2.90196085
812.02545166	2.90196085
812.02954102	2.92156863
812.02954102	2.92156863
812.03356934	2.90196085
812.03771973	2.90196085
812.04180908	2.90196085
812.04595947	2.90196085
812.05004883	2.90196085
812.05004883	2.90196085
812.05419922	2.90196085
812.05822754	3.27450991
812.06237793	4.35294104
812.06237793	4.33333349
812.06646729	4.23529434
812.07049561	4.01960802
812.07458496	4.35294104
812.07458496	4.47058821
812.07867432	4.47058821
812.08288574	4.47058821
812.08679199	4.33333349
812.09088135	4.31372547
812.09515381	4.39215708
812.09515381	4.41176462
812.09918213	4.43137264
812.10333252	4.43137264
812.10729980	4.39215708
812.10729980	4.27450991
812.11145020	4.07843161
812.11560059	4.33333349
812.11968994	4.33333349
812.11968994	4.37254906
812.12371826	4.33333349
812.12786865	4.11764717
812.12786865	2.90196085
812.13201904	2.90196085
812.13610840	2.90196085
812.14019775	3.09803915
812.14019775	4.29411745
812.14422607	4.21568632
812.14825439	4.17647076
812.15240479	4.23529434
812.15240479	4.33333349
812.15655518	4.41176462
812.16052246	4.43137264
812.16467285	4.43137264
812.16467285	4.39215708
812.16882324	4.27450991
812.17297363	4.27450991
812.17297363	4.37254906
812.17694092	4.45098019
812.18121338	4.43137264
812.18518066	4.41176462
812.18518066	4.33333349
812.18933105	4.35294104
812.19354248	4.31372547
812.19744873	4.43137264
812.19744873	4.43137264
812.20153809	4.43137264
812.20562744	4.39215708
812.20977783	4.27450991
812.20977783	4.03921556
812.21374512	2.86274505
812.21795654	3.39215684
812.21795654	4.37254906
812.22204590	4.37254906
812.22613525	4.05882359
812.23028564	2.88235283
812.23028564	2.88235283
812.23443604	2.88235283
812.23840332	4.37254906
812.24249268	4.41176462
812.24249268	4.39215708
812.24664307	4.27450991
812.25067139	3.58823538
812.25476074	2.82352948
812.25476074	3.72549009
812.25891113	4.41176462
812.26300049	4.39215708
812.26300049	4.33333349
812.26715088	4.09803915
812.27124023	3.03921580
812.27532959	2.82352948
812.27532959	4.33333349
812.27941895	4.37254906
812.28363037	4.31372547
812.28759766	4.11764717
812.28759766	2.86274505
812.29168701	2.84313726
812.29589844	2.86274505
812.29998779	4.35294104
812.30395508	4.29411745
812.30822754	2.84313726
812.30822754	2.86274505
812.31225586	2.88235283
812.31634521	2.94117641
812.32043457	4.39215708
812.32043457	4.41176462
812.32446289	4.35294104
812.32855225	4.17647076
812.33276367	3.43137264
812.33276367	3.07843137
812.33685303	4.39215708
812.34082031	4.43137264
812.34490967	4.33333349
812.34912109	4.25490189
812.35321045	4.23529434
812.35321045	4.33333349
812.35723877	4.43137264
812.36132813	4.43137264
812.36547852	4.39215708
812.36547852	4.31372547
812.36956787	4.23529434
812.37371826	4.21568632
812.37768555	4.35294104
812.37768555	4.41176462
812.38189697	4.39215708
812.38592529	4.25490189
812.39007568	2.90196085
812.39422607	2.90196085
812.39819336	3.07843137
812.39819336	4.33333349
812.40234375	4.29411745
812.40643311	3.70588231
812.41058350	2.88235283
812.41058350	2.88235283
812.41461182	2.86274505
812.41870117	3.33333325
812.42285156	4.25490189
812.42285156	2.90196085
812.42700195	2.88235283
812.43096924	2.88235283
812.43518066	3.07843137
812.43920898	4.33333349
812.44335938	4.33333349
812.44335938	4.17647076
812.44732666	2.90196085
812.45141602	2.90196085
812.45556641	2.90196085
812.45556641	3.43137264
812.45971680	4.35294104
812.46380615	4.27450991
812.46777344	3.07843137
812.46777344	2.90196085
812.47198486	2.88235283
812.47613525	2.96078420
812.48022461	4.35294104
812.48425293	4.25490189
812.48834229	3.09803915
812.48834229	2.90196085
812.49249268	2.88235283
812.49664307	2.90196085
812.50073242	3.13725495
812.50073242	3.31372547
812.50476074	3.21568632
812.50885010	2.88235283
812.51293945	2.90196085
812.51293945	2.90196085
812.51702881	3.25490189
812.52124023	4.27450991
812.52520752	3.45098042
812.52929688	2.88235283
812.53344727	2.88235283
812.53344727	2.98039222
812.53741455	4.35294104
812.54150391	4.35294104
812.54571533	4.31372547
812.54571533	4.19607830
812.54980469	3.07843137
812.55383301	2.86274505
812.55792236	4.33333349
812.55792236	4.37254906
812.56213379	4.35294104
812.56616211	4.27450991
812.57043457	2.86274505
812.57427979	2.88235283
812.57849121	4.31372547
812.57849121	4.37254906
812.58264160	4.33333349
812.58673096	4.25490189
812.59082031	3.11764717
812.59082031	2.86274505
812.59484863	2.90196085
812.59887695	4.35294104
812.60308838	4.35294104
812.60308838	4.31372547
812.60717773	4.09803915
812.61120605	2.88235283
812.61120605	2.90196085
812.61529541	4.17647076
812.61944580	4.35294104
812.62353516	4.31372547
812.62353516	4.23529434
812.62750244	4.07843161
812.63165283	2.88235283
812.63580322	2.84313726
812.63580322	3.68627453
812.63989258	4.31372547
812.64404297	4.31372547
812.64819336	4.21568632
812.64819336	3.49019599
812.65222168	2.88235283
812.65631104	3.17647052
812.65631104	4.33333349
812.66046143	4.31372547
812.66442871	4.25490189
812.66851807	3.37254906
812.66851807	2.88235283
812.67266846	2.88235283
812.67681885	3.27450991
812.68096924	4.31372547
812.68096924	4.33333349
812.68493652	4.21568632
812.68908691	3.03921580
812.69317627	2.92156863
812.69317627	2.90196085
812.69738770	3.72549009
812.70129395	4.29411745
812.70129395	4.37254906
812.70544434	4.25490189
812.70959473	4.01960802
812.71368408	3.09803915
812.71368408	3.25490189
812.71765137	4.33333349
812.72180176	4.33333349
812.72595215	4.27450991
812.72595215	3.98039222
812.73004150	2.90196085
812.73413086	2.88235283
812.73815918	4.27450991
812.73815918	4.33333349
812.74230957	4.31372547
812.74645996	4.27450991
812.74645996	3.56862736
812.75067139	2.90196085
812.75457764	3.54901958
812.75897217	4.33333349
812.75897217	4.33333349
812.76293945	4.31372547
812.76708984	4.19607830
812.77099609	3.33333325
812.77099609	2.86274505
812.77514648	4.25490189
812.77911377	4.33333349
812.78326416	4.31372547
812.78741455	4.13725471
812.79138184	3.17647052
812.79138184	2.84313726
812.79553223	4.23529434
812.79962158	4.35294104
812.80377197	4.33333349
812.80377197	4.27450991
812.80780029	3.52941179
812.81188965	2.86274505
812.81610107	2.92156863
812.81610107	4.33333349
812.82012939	4.33333349
812.82421875	4.33333349
812.82830811	3.13725495
812.83239746	2.88235283
812.83654785	3.01960778
812.83654785	4.33333349
812.84069824	4.31372547
812.84466553	4.27450991
812.84881592	3.84313726
812.84881592	2.92156863
812.85290527	2.88235283
812.85705566	3.33333325
812.86120605	4.31372547
812.86120605	4.29411745
812.86517334	4.17647076
812.86926270	2.90196085
812.87341309	2.84313726
812.87762451	4.17647076
812.88159180	4.31372547
812.88159180	4.31372547
812.88574219	4.19607830
812.88983154	2.88235283
812.89392090	2.88235283
812.89392090	3.11764717
812.89794922	4.33333349
812.90222168	4.33333349
812.90618896	4.27450991
812.90618896	4.09803915
812.91027832	2.90196085
812.91442871	2.88235283
812.91845703	4.31372547
812.92260742	4.31372547
812.92675781	4.19607830
812.92675781	3.13725495
812.93084717	2.88235283
812.93487549	2.86274505
812.93896484	4.31372547
812.93896484	4.33333349
812.94305420	4.29411745
812.94720459	4.01960802
812.95135498	2.86274505
812.95135498	2.86274505
812.95526123	2.96078420
812.95941162	4.33333349
812.96350098	4.19607830
812.96771240	2.88235283
812.97161865	2.88235283
812.97161865	2.86274505
812.97583008	3.13725495
812.97991943	4.25490189
812.98400879	4.25490189
812.98400879	3.86274505
812.98822021	2.88235283
812.99224854	2.88235283
812.99633789	2.86274505
812.99633789	3.43137264
813.00048828	4.31372547
813.00463867	4.23529434
813.00860596	2.90196085
813.01269531	2.88235283
813.01678467	2.88235283
813.01678467	3.52941179
813.02099609	4.27450991
813.02496338	4.07843161
813.02917480	2.90196085
813.02917480	2.88235283
813.03314209	2.90196085
813.03735352	3.11764717
813.04150391	4.27450991
813.04150391	4.25490189
813.04547119	4.07843161
813.04962158	2.94117641
813.05377197	2.88235283
813.05786133	3.09803915
813.06188965	4.29411745
813.06188965	4.21568632
813.06597900	2.86274505
813.07012939	2.88235283
813.07421875	2.88235283
813.07421875	2.98039222
813.07818604	4.01960802
813.08227539	4.23529434
813.08648682	3.35294127
813.08648682	2.88235283
813.09057617	2.88235283
813.09466553	2.88235283
813.09466553	2.88235283
813.09875488	2.88235283
813.10284424	2.90196085
813.10699463	2.90196085
813.10699463	2.90196085
813.11114502	2.88235283
813.11523438	2.88235283
813.11920166	2.88235283
813.11920166	2.88235283
813.12335205	2.88235283
813.12744141	2.88235283
813.13159180	2.88235283
813.13159180	2.90196085
813.13562012	2.90196085
813.13970947	2.88235283
813.13970947	2.88235283
813.14379883	2.88235283
813.14782715	2.88235283
813.15197754	2.88235283
813.15197754	2.88235283
813.15606689	2.88235283
813.16015625	2.88235283
813.16430664	2.88235283
813.16430664	2.88235283
813.16827393	2.88235283
813.17242432	2.88235283
813.17657471	2.88235283
813.17657471	2.88235283
813.18066406	2.88235283
813.18481445	2.88235283
813.18481445	2.88235283
813.18878174	2.88235283
813.19293213	2.88235283
813.19702148	2.88235283
813.19702148	2.86274505
813.20111084	2.86274505
813.20513916	2.88235283
813.20922852	2.88235283
813.20922852	2.88235283
813.21343994	2.88235283
813.21752930	2.86274505
813.22167969	2.86274505
813.22167969	2.86274505
813.22564697	2.88235283
813.22979736	2.88235283
813.22979736	2.88235283
813.23388672	2.86274505
813.23809814	2.84313726
813.24218750	3.37254906
813.24218750	3.82352948
813.24621582	2.88235283
813.25030518	2.88235283
813.25445557	2.86274505
813.25445557	2.94117641
813.25842285	4.21568632
813.26257324	4.29411745
813.26666260	2.94117641
813.27087402	2.86274505
813.27490234	2.84313726
813.27490234	4.13725471
813.27893066	4.37254906
813.28308105	4.37254906
813.28717041	4.33333349
813.28717041	4.33333349
813.29138184	4.31372547
813.29534912	4.35294104
813.29943848	4.39215708
813.29943848	4.39215708
813.30364990	4.35294104
813.30773926	4.29411745
813.31182861	4.27450991
813.31579590	4.31372547
813.32000732	4.33333349
813.32000732	4.37254906
813.32409668	4.33333349
813.32818604	4.25490189
813.33215332	4.27450991
813.33215332	4.33333349
813.33636475	4.35294104
813.34039307	4.35294104
813.34454346	4.31372547
813.34454346	4.23529434
813.34851074	4.17647076
813.35266113	4.19607830
813.35681152	4.35294104
813.36090088	4.35294104
813.36505127	4.35294104
813.36505127	4.27450991
813.36914063	4.29411745
813.37316895	4.31372547
813.37731934	4.37254906
813.37731934	4.37254906
813.38146973	4.37254906
813.38543701	4.31372547
813.38952637	4.23529434
813.38952637	4.23529434
813.39367676	4.31372547
813.39788818	4.33333349
813.40185547	4.33333349
813.40582275	4.31372547
813.41015625	4.31372547
813.41015625	4.33333349
813.41418457	4.39215708
813.41827393	4.41176462
813.42230225	4.41176462
813.42230225	4.41176462
813.42645264	4.37254906
813.43054199	4.37254906
813.43469238	4.39215708
813.43469238	4.43137264
813.43872070	4.43137264
813.44287109	4.43137264
813.44696045	4.39215708
813.45104980	4.37254906
813.45513916	4.39215708
813.45513916	4.41176462
813.45922852	4.41176462
813.46331787	4.41176462
813.46734619	4.39215708
813.46734619	4.35294104
813.47155762	4.33333349
813.47552490	4.35294104
813.47967529	4.39215708
813.47967529	4.37254906
813.48376465	4.33333349
813.48797607	4.29411745
813.49194336	4.31372547
813.49615479	4.35294104
813.50024414	4.37254906
813.50024414	4.37254906
813.50439453	4.33333349
813.50848389	4.25490189
813.51245117	4.17647076
813.51245117	4.25490189
813.51654053	4.31372547
813.52075195	4.31372547
813.52484131	4.29411745
813.52484131	4.17647076
813.52874756	3.43137264
813.53289795	2.86274505
813.53704834	4.25490189
813.54119873	4.33333349
813.54528809	4.31372547
813.54528809	4.19607830
813.54931641	4.13725471
813.55346680	4.25490189
813.55755615	4.33333349
813.55755615	4.35294104
813.56170654	4.35294104
813.56567383	4.29411745
813.56982422	4.09803915
813.56982422	3.29411769
813.57385254	2.86274505
813.57800293	4.31372547
813.57800293	4.33333349
813.58221436	4.27450991
813.58612061	3.88235283
813.59027100	2.86274505
813.59027100	2.86274505
813.59442139	2.84313726
813.59844971	2.84313726
813.60253906	3.23529410
813.60253906	3.29411769
813.60668945	2.86274505
813.61077881	2.86274505
813.61492920	2.86274505
813.61492920	2.82352948
813.61889648	3.00000000
813.62316895	3.13725495
813.62316895	2.86274505
813.62725830	2.86274505
813.63134766	2.86274505
813.63543701	2.86274505
813.63543701	2.84313726
813.63940430	2.84313726
813.64355469	2.86274505
813.64764404	2.86274505
813.64764404	2.88235283
813.65173340	2.88235283
813.65582275	2.86274505
813.65991211	2.86274505
813.65991211	2.86274505
813.66406250	2.86274505
813.66815186	2.88235283
813.66815186	2.88235283
813.67218018	2.88235283
813.67626953	2.86274505
813.68041992	2.86274505
813.68041992	2.86274505
813.68450928	2.86274505
813.68859863	2.88235283
813.69268799	2.88235283
813.69268799	2.86274505
813.69683838	2.82352948
813.70092773	3.07843137
813.70495605	2.94117641
813.70495605	2.86274505
813.70916748	2.86274505
813.71307373	2.86274505
813.71307373	2.82352948
813.71734619	3.80392146
813.72143555	4.33333349
813.72552490	4.29411745
813.72552490	4.11764717
813.72949219	2.88235283
813.73358154	2.86274505
813.73779297	2.90196085
813.73779297	3.70588231
813.74182129	4.27450991
813.74591064	4.07843161
813.75012207	2.86274505
813.75415039	2.84313726
813.75823975	3.43137264
813.75823975	4.31372547
813.76226807	4.31372547
813.76635742	4.27450991
813.77050781	4.15686274
813.77050781	4.19607830
813.77465820	4.33333349
813.77868652	4.35294104
813.78277588	4.37254906
813.78277588	4.33333349
813.78692627	4.27450991
813.79107666	4.27450991
813.79522705	4.37254906
813.79919434	4.39215708
813.80334473	4.39215708
813.80334473	4.31372547
813.80749512	4.29411745
813.81158447	4.29411745
813.81567383	4.31372547
813.81567383	4.37254906
813.81970215	4.37254906
813.82379150	4.39215708
813.82794189	4.37254906
813.82794189	4.35294104
813.83209229	4.33333349
813.83618164	4.39215708
813.84014893	4.31372547
813.84429932	4.23529434
813.84844971	3.56862736
813.84844971	2.88235283
813.85247803	2.86274505
813.85662842	2.86274505
813.86071777	2.86274505
813.86071777	2.86274505
813.86486816	2.88235283
813.86877441	2.88235283
813.87298584	2.88235283
813.87298584	2.88235283
813.87707520	2.88235283
813.88122559	2.88235283
813.88531494	2.88235283
813.88928223	2.88235283
813.89343262	2.88235283
813.89343262	2.88235283
813.89758301	2.88235283
813.90167236	2.88235283
813.90576172	2.88235283
813.90576172	2.90196085
813.90979004	2.90196085
813.91400146	2.90196085
813.91809082	2.88235283
813.91809082	2.88235283
813.92224121	2.90196085
813.92620850	2.90196085
813.93035889	2.90196085
813.93444824	2.90196085
813.93859863	2.90196085
813.93859863	2.90196085
813.94262695	2.90196085
813.94671631	2.92156863
813.95080566	2.92156863
813.95080566	2.92156863
813.95489502	2.90196085
813.95892334	2.90196085
813.96319580	2.90196085
813.96319580	2.94117641
813.96716309	2.92156863
813.97131348	2.92156863
813.97540283	2.90196085
813.97937012	2.90196085
813.98364258	2.94117641
813.98364258	2.94117641
813.98767090	2.94117641
813.99182129	2.92156863
813.99591064	2.92156863
813.99591064	2.90196085
813.99987793	2.92156863
814.00402832	2.90196085
814.00811768	2.92156863
814.00811768	2.92156863
814.01214600	2.92156863
814.01629639	3.03921580
814.02044678	4.31372547
814.02453613	4.25490189
814.02868652	4.19607830
814.02868652	4.23529434
814.03271484	4.35294104
814.03686523	4.45098019
814.04095459	4.43137264
814.04095459	4.41176462
814.04510498	4.37254906
814.04925537	4.35294104
814.05322266	4.37254906
814.05322266	4.39215708
814.05737305	4.41176462
814.06146240	4.43137264
814.06146240	4.41176462
814.06555176	4.37254906
814.06958008	4.37254906
814.07366943	4.37254906
814.07366943	4.41176462
814.07781982	4.41176462
814.08190918	4.41176462
814.08605957	4.39215708
814.08605957	4.35294104
814.09014893	4.35294104
814.09417725	4.35294104
814.09826660	4.39215708
814.09826660	4.41176462
814.10229492	4.39215708
814.10638428	4.33333349
814.10638428	4.29411745
814.11053467	4.31372547
814.11468506	4.31372547
814.11877441	4.33333349
814.11877441	4.31372547
814.12280273	4.27450991
814.12695313	3.72549009
814.13122559	2.88235283
814.13122559	2.88235283
814.13519287	2.88235283
814.13916016	2.88235283
814.14331055	2.88235283
814.14331055	2.88235283
814.14746094	2.88235283
814.15161133	2.88235283
814.15161133	2.88235283
814.15557861	2.88235283
814.15966797	2.88235283
814.16381836	2.88235283
814.16381836	2.90196085
814.16790771	2.90196085
814.17205811	2.90196085
814.17614746	2.90196085
814.17614746	2.90196085
814.18017578	2.90196085
814.18426514	2.90196085
814.18847656	2.90196085
814.18847656	2.90196085
814.19262695	2.90196085
814.19659424	2.90196085
814.19659424	2.90196085
814.20068359	2.90196085
814.20477295	2.90196085
814.20898438	2.90196085
814.20898438	2.90196085
814.21295166	2.90196085
814.21710205	2.88235283
814.22113037	2.86274505
814.22113037	2.88235283
814.22528076	2.88235283
814.22943115	2.88235283
814.23339844	2.86274505
814.23754883	3.00000000
814.24163818	4.03921556
814.24163818	4.27450991
814.24566650	3.98039222
814.24981689	2.86274505
814.25396729	2.86274505
814.25396729	3.29411769
814.25805664	4.33333349
814.26220703	4.31372547
814.26629639	4.25490189
814.26629639	4.19607830
814.27032471	4.17647076
814.27441406	4.25490189
814.27844238	4.31372547
814.28253174	4.29411745
814.28668213	4.19607830
814.28668213	3.68627453
814.29077148	2.88235283
814.29492188	2.86274505
814.29907227	3.60784316
814.29907227	4.29411745
814.30316162	4.23529434
814.30718994	3.03921580
814.31127930	2.90196085
814.31127930	2.90196085
814.31542969	2.88235283
814.31958008	2.84313726
814.32354736	2.90196085
814.32763672	2.92156863
814.33178711	2.90196085
814.33178711	2.90196085
814.33587646	2.94117641
814.33984375	3.78431368
814.34411621	4.25490189
814.34411621	4.17647076
814.34814453	3.43137264
814.35229492	2.88235283
814.35638428	4.19607830
814.35638428	4.37254906
814.36041260	4.37254906
814.36450195	4.35294104
814.36865234	4.29411745
814.37268066	4.29411745
814.37683105	4.37254906
814.37683105	4.37254906
814.38098145	4.37254906
814.38507080	4.31372547
814.38916016	4.23529434
814.38916016	4.23529434
814.39318848	4.25490189
814.39727783	4.25490189
814.40136719	4.29411745
814.40136719	4.23529434
814.40557861	3.60784316
814.40966797	2.88235283
814.41363525	2.90196085
814.41778564	2.90196085
814.42193604	2.90196085
814.42193604	2.90196085
814.42590332	2.90196085
814.43017578	2.90196085
814.43414307	2.88235283
814.43414307	2.86274505
814.43829346	2.90196085
814.44244385	2.88235283
814.44653320	2.88235283
814.44653320	2.90196085
814.45056152	2.90196085
814.45465088	2.90196085
814.45874023	2.88235283
814.46270752	2.90196085
814.46691895	2.90196085
814.46691895	2.90196085
814.47119141	2.88235283
814.47515869	2.86274505
814.47930908	3.35294127
814.47930908	4.31372547
814.48327637	4.25490189
814.48742676	4.19607830
814.49151611	4.07843161
814.49151611	4.23529434
814.49566650	4.31372547
814.49981689	4.33333349
814.50384521	4.29411745
814.50793457	4.29411745
814.51202393	4.29411745
814.51202393	4.31372547
814.51605225	4.37254906
814.52014160	4.39215708
814.52423096	4.39215708
814.52423096	4.33333349
814.52838135	4.31372547
814.53253174	4.33333349
814.53668213	4.39215708
814.53668213	4.39215708
814.54064941	4.41176462
814.54479980	4.39215708
814.54479980	4.35294104
814.54888916	4.35294104
814.55291748	4.37254906
814.55718994	4.41176462
814.55718994	4.41176462
814.56109619	4.41176462
814.56524658	4.39215708
814.56933594	4.37254906
814.56933594	4.35294104
814.57336426	4.41176462
814.57745361	4.41176462
814.58166504	4.41176462
814.58166504	4.39215708
814.58575439	4.35294104
814.58990479	4.35294104
814.58990479	4.39215708
814.59387207	4.41176462
814.59802246	4.41176462
814.60211182	4.41176462
814.60211182	4.39215708
814.60626221	4.39215708
814.61029053	4.39215708
814.61444092	4.41176462
814.61444092	4.43137264
814.61859131	4.45098019
814.62274170	4.43137264
814.62683105	4.41176462
814.62683105	4.39215708
814.63085938	4.39215708
814.63494873	4.41176462
814.63494873	4.43137264
814.63903809	4.45098019
814.64318848	4.45098019
814.64715576	4.43137264
814.64715576	4.41176462
814.65130615	4.43137264
814.65539551	4.45098019
814.65954590	4.45098019
814.65954590	4.45098019
814.66357422	4.45098019
814.66766357	4.45098019
814.67187500	4.43137264
814.67187500	4.45098019
814.67596436	4.47058821
814.68011475	4.47058821
814.68011475	4.47058821
814.68420410	4.47058821
814.68823242	4.47058821
814.69232178	4.47058821
814.69232178	4.47058821
814.69641113	4.47058821
814.70037842	4.49019623
814.70458984	4.47058821
814.70458984	4.47058821
814.70874023	4.47058821
814.71276855	4.49019623
814.71679688	4.49019623
814.72094727	4.49019623
814.72509766	4.49019623
814.72509766	4.49019623
814.72924805	4.49019623
814.73321533	4.49019623
814.73736572	4.49019623
814.73736572	4.49019623
814.74145508	4.49019623
814.74560547	4.49019623
814.74969482	4.47058821
814.74969482	4.47058821
814.75372314	4.47058821
814.75781250	4.49019623
814.76190186	4.47058821
814.76605225	4.47058821
814.77020264	4.47058821
814.77020264	4.47058821
814.77416992	4.47058821
814.77825928	4.47058821
814.78240967	4.47058821
814.78240967	4.47058821
814.78649902	4.45098019
814.79058838	4.45098019
814.79467773	4.47058821
814.79467773	4.47058821
814.79882813	4.47058821
814.80297852	4.47058821
814.80694580	4.45098019
814.81121826	4.45098019
814.81518555	4.45098019
814.81518555	4.47058821
814.81927490	4.47058821
814.82330322	4.47058821
814.82739258	4.45098019
814.82739258	4.45098019
814.83154297	4.45098019
814.83569336	4.47058821
814.83978271	4.47058821
814.83978271	4.45098019
814.84381104	4.45098019
814.84790039	4.41176462
814.85205078	4.43137264
814.85614014	4.45098019
814.86029053	4.45098019
814.86029053	4.43137264
814.86425781	4.33333349
814.86840820	4.35294104
814.87249756	4.37254906
814.87249756	4.37254906
814.87658691	4.39215708
814.88067627	4.35294104
814.88476563	4.29411745
814.88476563	4.07843161
814.88891602	2.90196085
814.89306641	2.88235283
814.89715576	2.88235283
814.90118408	2.86274505
814.90521240	2.88235283
814.90521240	2.90196085
814.90942383	2.90196085
814.91339111	2.90196085
814.91748047	2.90196085
814.91748047	2.90196085
814.92163086	2.90196085
814.92578125	2.90196085
814.92993164	2.90196085
814.92993164	2.90196085
814.93383789	2.90196085
814.93823242	2.90196085
814.94219971	2.90196085
814.94628906	2.90196085
814.95037842	2.90196085
814.95037842	2.90196085
814.95446777	2.90196085
814.95855713	2.90196085
814.96264648	2.90196085
814.96264648	2.90196085
814.96655273	2.90196085
814.97076416	2.90196085
814.97491455	2.90196085
814.97491455	2.90196085
814.97900391	2.90196085
814.98315430	2.90196085
814.98718262	2.90196085
814.99127197	2.90196085
814.99536133	2.90196085
814.99536133	2.90196085
814.99957275	2.88235283
815.00360107	2.86274505
815.00769043	2.90196085
815.00769043	2.90196085
815.01177979	2.90196085
815.01593018	2.90196085
815.02008057	2.88235283
815.02008057	2.90196085
815.02416992	2.90196085
815.02807617	2.90196085
815.02807617	2.92156863
815.03228760	2.90196085
815.03637695	2.90196085
815.04052734	2.90196085
815.04052734	2.90196085
815.04455566	2.92156863
815.04864502	2.92156863
815.05279541	2.90196085
815.05279541	2.90196085
815.05676270	2.90196085
815.06091309	2.90196085
815.06518555	2.90196085
815.06518555	2.90196085
815.06921387	2.90196085
815.07330322	2.90196085
815.07330322	2.90196085
815.07727051	2.90196085
815.08142090	2.90196085
815.08551025	2.90196085
815.08551025	2.90196085
815.08953857	2.90196085
815.09362793	2.90196085
815.09777832	2.90196085
815.09777832	2.90196085
815.10192871	2.90196085
815.10601807	2.90196085
815.11016846	2.90196085
815.11016846	2.92156863
815.11413574	2.90196085
815.11822510	2.90196085
815.11822510	2.88235283
815.12243652	2.90196085
815.12658691	2.90196085
815.13073730	2.88235283
815.13073730	2.88235283
815.13470459	2.88235283
815.13879395	2.86274505
815.14294434	2.86274505
815.14294434	2.88235283
815.14685059	2.88235283
815.15118408	2.88235283
815.15509033	2.88235283
815.15509033	2.88235283
815.15930176	2.86274505
815.16339111	2.88235283
815.16339111	2.90196085
815.16735840	2.90196085
815.17150879	2.90196085
815.17565918	2.90196085
815.17565918	2.88235283
815.17974854	2.88235283
815.18371582	2.90196085
815.18792725	2.90196085
815.18792725	2.92156863
815.19207764	2.90196085
815.19622803	2.90196085
815.20025635	2.88235283
815.20428467	2.90196085
815.20837402	2.90196085
815.20837402	2.90196085
815.21246338	2.88235283
815.21667480	2.88235283
815.22082520	2.88235283
815.22082520	2.88235283
815.22479248	2.88235283
815.22888184	2.88235283
815.23303223	2.88235283
815.23303223	2.88235283
815.23718262	2.86274505
815.24114990	3.17647052
815.24530029	2.88235283
815.24932861	2.88235283
815.25347900	2.88235283
815.25347900	2.86274505
815.25744629	2.88235283
815.26165771	2.86274505
815.26568604	2.90196085
815.26568604	2.88235283
815.26989746	2.90196085
815.27386475	2.90196085
815.27819824	2.84313726
815.27819824	3.07843137
815.28216553	2.88235283
815.28631592	2.90196085
815.29040527	2.88235283
815.29437256	2.88235283
815.29852295	2.84313726
815.29852295	2.86274505
815.30261230	2.88235283
815.30676270	2.88235283
815.31097412	2.88235283
815.31097412	2.88235283
815.31494141	2.86274505
815.31909180	3.00000000
815.32318115	3.33333325
815.32318115	2.88235283
815.32714844	2.88235283
815.33129883	2.90196085
815.33544922	2.88235283
815.33953857	2.86274505
815.34362793	2.88235283
815.34362793	2.90196085
815.34765625	2.90196085
815.35180664	2.90196085
815.35595703	2.88235283
815.35595703	2.98039222
815.36010742	3.09803915
815.36419678	2.88235283
815.36816406	2.90196085
815.36816406	2.90196085
815.37231445	2.90196085
815.37646484	2.88235283
815.38055420	2.88235283
815.38452148	2.90196085
815.38867188	2.90196085
815.38867188	2.88235283
815.39282227	2.90196085
815.39691162	2.90196085
815.40100098	2.86274505
815.40100098	2.90196085
815.40515137	2.92156863
815.40917969	2.94117641
815.41333008	2.96078420
815.41333008	2.92156863
815.41729736	2.96078420
815.42144775	3.03921580
815.42559814	2.94117641
815.42974854	2.96078420
815.43383789	2.94117641
815.43383789	3.03921580
815.43780518	4.25490189
815.44195557	4.23529434
815.44604492	2.96078420
815.44604492	2.92156863
815.45013428	2.92156863
815.45416260	2.90196085
815.45831299	3.09803915
815.45831299	3.74509811
815.46240234	3.78431368
815.46649170	2.98039222
815.47064209	2.92156863
815.47467041	3.01960778
815.47882080	2.94117641
815.47882080	2.96078420
815.48297119	2.96078420
815.48712158	2.96078420
815.49121094	2.90196085
815.49121094	2.94117641
815.49517822	2.96078420
815.49932861	2.94117641
815.50347900	2.92156863
815.50347900	3.00000000
815.50738525	2.92156863
815.51153564	2.92156863
815.51153564	2.92156863
815.51562500	2.90196085
815.51983643	2.90196085
815.52392578	2.94117641
815.52392578	2.94117641
815.52789307	2.94117641
815.53216553	2.94117641
815.53619385	2.94117641
815.53619385	2.94117641
815.54034424	3.15686274
815.54431152	2.94117641
815.54846191	2.96078420
815.54846191	2.98039222
815.55255127	2.98039222
815.55670166	2.98039222
815.55670166	3.29411769
815.56066895	3.23529410
815.56475830	3.07843137
815.56890869	2.98039222
815.56890869	2.96078420
815.57305908	2.98039222
815.57714844	3.31372547
815.58117676	4.25490189
815.58117676	4.15686274
815.58532715	3.03921580
815.58941650	2.96078420
815.59350586	2.94117641
815.59350586	3.11764717
815.59753418	4.35294104
815.60168457	4.31372547
815.60168457	4.15686274
815.60583496	2.98039222
815.60998535	2.98039222
815.61407471	2.96078420
815.61407471	3.19607854
815.61816406	4.29411745
815.62219238	4.25490189
815.62634277	3.13725495
815.62634277	2.94117641
815.63043213	2.96078420
815.63446045	2.96078420
815.63854980	3.37254906
815.63854980	4.27450991
815.64263916	3.88235283
815.64678955	2.96078420
815.64678955	2.90196085
815.65075684	2.88235283
815.65490723	2.88235283
815.65911865	2.88235283
815.65911865	2.90196085
815.66320801	2.96078420
815.66729736	2.98039222
815.67132568	3.03921580
815.67132568	2.98039222
815.67547607	2.98039222
815.67956543	3.21568632
815.68365479	2.96078420
815.68768311	2.96078420
815.69183350	2.98039222
815.69183350	2.94117641
815.69592285	2.94117641
815.70001221	4.21568632
815.70416260	4.15686274
815.70416260	2.96078420
815.70819092	2.96078420
815.71228027	2.94117641
815.71636963	2.98039222
815.71636963	4.27450991
815.72052002	4.29411745
815.72448730	3.98039222
815.72863770	2.92156863
815.73284912	2.90196085
815.73699951	4.00000000
815.73699951	4.33333349
815.74096680	4.29411745
815.74523926	3.84313726
815.74920654	2.92156863
815.74920654	2.94117641
815.75329590	2.90196085
815.75744629	4.27450991
815.76141357	4.27450991
815.76141357	4.17647076
815.76550293	2.90196085
815.76965332	2.92156863
815.77380371	3.01960778
815.77777100	4.29411745
815.78186035	4.27450991
815.78186035	3.45098042
815.78607178	2.90196085
815.79016113	2.90196085
815.79431152	2.90196085
815.79431152	3.19607854
815.79833984	4.29411745
815.80242920	4.23529434
815.80657959	3.19607854
815.80657959	2.88235283
815.81066895	2.88235283
815.81481934	2.86274505
815.81884766	4.31372547
815.82287598	4.23529434
815.82702637	2.88235283
815.82702637	2.88235283
815.83117676	2.86274505
815.83526611	3.39215684
815.83929443	4.33333349
815.83929443	4.33333349
815.84344482	4.15686274
815.84753418	2.86274505
815.85150146	2.86274505
815.85150146	2.86274505
815.85565186	3.49019599
815.85980225	4.35294104
815.86395264	4.19607830
815.86791992	2.86274505
815.87219238	2.86274505
815.87219238	2.90196085
815.87615967	4.35294104
815.88031006	4.31372547
815.88439941	4.27450991
815.88439941	3.05882359
815.88836670	2.88235283
815.89251709	2.88235283
815.89666748	3.50980401
815.89666748	4.33333349
815.90075684	4.33333349
815.90478516	4.23529434
815.90893555	2.86274505
815.91308594	2.86274505
815.91717529	4.35294104
815.91717529	4.35294104
815.92120361	4.31372547
815.92529297	4.07843161
815.92944336	2.86274505
815.92944336	2.86274505
815.93359375	3.25490189
815.93774414	4.37254906
815.94171143	4.35294104
815.94171143	4.33333349
815.94580078	4.19607830
815.94989014	3.11764717
815.95404053	4.35294104
815.95819092	4.39215708
815.96215820	4.37254906
815.96215820	4.29411745
815.96624756	4.17647076
815.97045898	4.15686274
815.97454834	4.29411745
815.97454834	4.37254906
815.97857666	4.39215708
815.98266602	4.37254906
815.98681641	4.29411745
815.98681641	4.23529434
815.99096680	4.23529434
815.99517822	4.33333349
815.99517822	4.39215708
815.99920654	4.37254906
816.00323486	4.33333349
816.00720215	4.21568632
816.00720215	4.15686274
816.01123047	4.25490189
816.01531982	4.31372547
816.01959229	4.35294104
816.01959229	4.33333349
816.02362061	4.17647076
816.02777100	2.88235283
816.03179932	2.86274505
816.03179932	2.84313726
816.03588867	4.15686274
816.04003906	4.31372547
816.04003906	4.25490189
816.04412842	3.25490189
816.04815674	2.88235283
816.05224609	2.88235283
816.05224609	2.84313726
816.05639648	3.17647052
816.06048584	4.25490189
816.06469727	4.05882359
816.06469727	2.88235283
816.06866455	2.88235283
816.07275391	2.86274505
816.07690430	2.86274505
816.07690430	2.84313726
816.08105469	2.86274505
816.08514404	2.88235283
816.08514404	2.88235283
816.08917236	2.88235283
816.09326172	2.88235283
816.09741211	2.86274505
816.09741211	2.86274505
816.10144043	2.86274505
816.10552979	2.88235283
816.10968018	2.88235283
816.10968018	2.88235283
816.11376953	2.88235283
816.11785889	2.86274505
816.12194824	2.88235283
816.12194824	2.88235283
816.12609863	2.88235283
816.13018799	2.88235283
816.13018799	2.88235283
816.13427734	2.88235283
816.13824463	2.88235283
816.14245605	2.88235283
816.14245605	2.88235283
816.14654541	2.88235283
816.15063477	2.88235283
816.15478516	2.88235283
816.15478516	2.88235283
816.15875244	2.88235283
816.16290283	2.88235283
816.16699219	2.88235283
816.17114258	2.88235283
816.17517090	2.88235283
816.17517090	2.88235283
816.17926025	2.88235283
816.18341064	2.88235283
816.18756104	2.88235283
816.18756104	2.88235283
816.19158936	2.88235283
816.19567871	2.88235283
816.19976807	2.88235283
816.19976807	2.88235283
816.20391846	2.88235283
816.20806885	2.88235283
816.21215820	2.88235283
816.21612549	2.88235283
816.22033691	2.88235283
816.22033691	2.88235283
816.22448730	2.88235283
816.22845459	2.88235283
816.23254395	2.88235283
816.23254395	2.88235283
816.23669434	2.88235283
816.24084473	2.88235283
816.24493408	2.88235283
816.24493408	2.88235283
816.24890137	2.88235283
816.25323486	2.88235283
816.25714111	2.86274505
816.26129150	2.86274505
816.26544189	2.86274505
816.26544189	2.86274505
816.26940918	2.86274505
816.27343750	3.23529410
816.27758789	4.39215708
816.27758789	4.41176462
816.28161621	4.41176462
816.28576660	4.39215708
816.28985596	4.39215708
816.28985596	4.41176462
816.29400635	4.45098019
816.29815674	4.45098019
816.30212402	4.45098019
816.30627441	4.45098019
816.31042480	4.45098019
816.31042480	4.45098019
816.31457520	4.47058821
816.31854248	4.47058821
816.32263184	4.47058821
816.32263184	4.47058821
816.32678223	4.47058821
816.33093262	4.47058821
816.33496094	4.47058821
816.33496094	4.47058821
816.33911133	4.49019623
816.34313965	4.47058821
816.34729004	4.47058821
816.35137939	4.47058821
816.35552979	4.47058821
816.35552979	4.47058821
816.35949707	4.47058821
816.36364746	4.47058821
816.36773682	4.45098019
816.36773682	4.45098019
816.37182617	4.45098019
816.37591553	4.47058821
816.38018799	4.47058821
816.38018799	4.45098019
816.38415527	4.45098019
816.38830566	4.43137264
816.39227295	4.43137264
816.39630127	4.45098019
816.40051270	4.45098019
816.40051270	4.43137264
816.40466309	4.39215708
816.40863037	4.37254906
816.41271973	4.35294104
816.41271973	4.41176462
816.41687012	4.41176462
816.42102051	4.39215708
816.42510986	4.35294104
816.42510986	4.29411745
816.42913818	4.25490189
816.43322754	4.27450991
816.43737793	4.31372547
816.44140625	4.29411745
816.44549561	4.07843161
816.44549561	2.90196085
816.44958496	2.90196085
816.45373535	2.88235283
816.45788574	2.88235283
816.45788574	2.88235283
816.46185303	2.90196085
816.46612549	2.90196085
816.47015381	2.90196085
816.47015381	2.90196085
816.47424316	2.90196085
816.47839355	2.90196085
816.47839355	2.90196085
816.48236084	2.90196085
816.48651123	2.92156863
816.49060059	2.92156863
816.49060059	2.90196085
816.49481201	2.90196085
816.49877930	2.90196085
816.50292969	2.92156863
816.50292969	2.92156863
816.50708008	2.90196085
816.51116943	2.90196085
816.51531982	2.90196085
816.51531982	2.90196085
816.51928711	2.90196085
816.52337646	2.90196085
816.52337646	2.90196085
816.52752686	2.92156863
816.53167725	2.90196085
816.53564453	2.90196085
816.53564453	2.90196085
816.53973389	2.90196085
816.54388428	2.90196085
816.54803467	2.90196085
816.54803467	2.90196085
816.55212402	2.90196085
816.55603027	2.90196085
816.56024170	2.90196085
816.56024170	2.90196085
816.56439209	2.90196085
816.56848145	2.90196085
816.56848145	2.90196085
816.57257080	2.90196085
816.57672119	2.90196085
816.58081055	2.90196085
816.58081055	2.90196085
816.58489990	2.90196085
816.58886719	2.90196085
816.59320068	2.90196085
816.59320068	2.90196085
816.59710693	2.90196085
816.60131836	2.90196085
816.60534668	2.90196085
816.60534668	2.90196085
816.60937500	2.90196085
816.61352539	2.90196085
816.61352539	2.90196085
816.61761475	2.90196085
816.62176514	2.90196085
816.62579346	2.90196085
816.62579346	2.90196085
816.62988281	2.90196085
816.63403320	2.84313726
816.63818359	3.90196085
816.63818359	4.29411745
816.64215088	4.19607830
816.64630127	2.88235283
816.65039063	2.88235283
816.65460205	2.86274505
816.65863037	3.17647052
816.65863037	4.03921556
816.66265869	4.11764717
816.66674805	2.88235283
816.67095947	2.88235283
816.67095947	2.86274505
816.67504883	3.50980401
816.67913818	4.31372547
816.68310547	4.29411745
816.68310547	4.19607830
816.68731689	3.43137264
816.69146729	2.88235283
816.69549561	4.35294104
816.69958496	4.35294104
816.70367432	4.31372547
816.70367432	4.23529434
816.70782471	4.23529434
816.71191406	4.27450991
816.71594238	4.35294104
816.71594238	4.39215708
816.72021484	4.37254906
816.72418213	4.31372547
816.72827148	4.25490189
816.72827148	4.27450991
816.73229980	4.31372547
816.73638916	4.39215708
816.74047852	4.39215708
816.74462891	4.33333349
816.74877930	4.31372547
816.74877930	4.33333349
816.75280762	4.41176462
816.75695801	4.43137264
816.76104736	4.43137264
816.76104736	4.39215708
816.76519775	4.35294104
816.76916504	4.35294104
816.77331543	4.39215708
816.77331543	4.43137264
816.77740479	4.43137264
816.78161621	4.43137264
816.78552246	4.39215708
816.78961182	4.43137264
816.79382324	4.45098019
816.79382324	4.47058821
816.79791260	4.47058821
816.80200195	4.47058821
816.80615234	4.47058821
816.80615234	4.45098019
816.81018066	4.45098019
816.81433105	4.47058821
816.81842041	4.47058821
816.81842041	4.47058821
816.82244873	4.47058821
816.82653809	4.45098019
816.83068848	4.43137264
816.83471680	4.45098019
816.83892822	4.45098019
816.83892822	4.43137264
816.84289551	4.37254906
816.84704590	4.31372547
816.85113525	4.29411745
816.85113525	4.31372547
816.85522461	4.37254906
816.85925293	4.37254906
816.86340332	4.33333349
816.86340332	4.23529434
816.86743164	4.11764717
816.87164307	4.11764717
816.87567139	4.31372547
816.87982178	4.31372547
816.88391113	4.19607830
816.88391113	2.90196085
816.88812256	2.90196085
816.89221191	2.90196085
816.89617920	2.88235283
816.89617920	3.05882359
816.90026855	2.94117641
816.90447998	2.90196085
816.90850830	2.90196085
816.90850830	2.92156863
816.91253662	2.90196085
816.91668701	2.90196085
816.92083740	2.90196085
816.92486572	2.90196085
816.92901611	2.90196085
816.92901611	2.90196085
816.93310547	2.90196085
816.93713379	2.92156863
816.94122314	2.90196085
816.94122314	2.90196085
816.94537354	2.92156863
816.94934082	2.92156863
816.95349121	2.92156863
816.95349121	2.90196085
816.95758057	2.90196085
816.96173096	2.90196085
816.96173096	2.92156863
816.96575928	2.92156863
816.96984863	2.92156863
816.97412109	2.92156863
816.97412109	2.92156863
816.97821045	2.92156863
816.98223877	2.92156863
816.98626709	2.92156863
816.98626709	2.92156863
816.99047852	2.92156863
816.99444580	2.92156863
816.99859619	2.90196085
816.99859619	2.90196085
817.00262451	2.90196085
817.00671387	2.90196085
817.00671387	2.90196085
817.01086426	2.90196085
817.01501465	2.90196085
817.01910400	2.90196085
817.01910400	2.90196085
817.02313232	2.90196085
817.02734375	2.90196085
817.03143311	2.90196085
817.03143311	2.90196085
817.03552246	2.90196085
817.03955078	2.90196085
817.04370117	2.90196085
817.04370117	2.90196085
817.04772949	2.90196085
817.05181885	2.90196085
817.05181885	2.90196085
817.05584717	2.90196085
817.06011963	2.90196085
817.06408691	2.90196085
817.06408691	2.90196085
817.06823730	2.90196085
817.07238770	2.90196085
817.07635498	2.90196085
817.07635498	2.88235283
817.08050537	2.90196085
817.08471680	2.90196085
817.08880615	2.90196085
817.08880615	2.90196085
817.09277344	2.90196085
817.09686279	2.90196085
817.09686279	2.90196085
817.10101318	2.90196085
817.10516357	2.90196085
817.10931396	2.90196085
817.10931396	2.90196085
817.11315918	3.13725495
817.11737061	4.39215708
817.12152100	4.41176462
817.12152100	4.39215708
817.12561035	4.39215708
817.12963867	4.39215708
817.13372803	4.45098019
817.13787842	4.47058821
817.14196777	4.45098019
817.14196777	4.45098019
817.14617920	4.43137264
817.15020752	4.43137264
817.15429688	4.45098019
817.15429688	4.47058821
817.15838623	4.47058821
817.16235352	4.47058821
817.16656494	4.47058821
817.16656494	4.45098019
817.17065430	4.47058821
817.17468262	4.47058821
817.17883301	4.47058821
817.18286133	4.47058821
817.18719482	4.45098019
817.18719482	4.45098019
817.19110107	4.45098019
817.19525146	4.47058821
817.19940186	4.47058821
817.19940186	4.45098019
817.20336914	4.43137264
817.20751953	4.41176462
817.21166992	4.41176462
817.21166992	4.43137264
817.21582031	4.43137264
817.21978760	4.43137264
817.22387695	4.35294104
817.22802734	4.29411745
817.23211670	4.29411745
817.23211670	4.33333349
817.23608398	4.35294104
817.24023438	4.33333349
817.24438477	4.23529434
817.24438477	2.88235283
817.24853516	2.90196085
817.25250244	2.88235283
817.25665283	2.88235283
817.25665283	2.96078420
817.26074219	3.03921580
817.26489258	2.90196085
817.26898193	2.90196085
817.27319336	2.88235283
817.27716064	2.98039222
817.27716064	4.21568632
817.28125000	4.25490189
817.28540039	3.62745094
817.28955078	2.88235283
817.28955078	2.88235283
817.29345703	2.90196085
817.29754639	3.43137264
817.30175781	4.27450991
817.30175781	4.05882359
817.30590820	2.90196085
817.30987549	2.90196085
817.31414795	2.88235283
817.31811523	2.88235283
817.32226563	2.88235283
817.32226563	2.90196085
817.32623291	2.90196085
817.33044434	2.90196085
817.33453369	2.90196085
817.33453369	2.90196085
817.33868408	2.88235283
817.34277344	2.90196085
817.34674072	2.90196085
817.34674072	2.90196085
817.35089111	2.90196085
817.35491943	2.88235283
817.35913086	3.78431368
817.36303711	4.17647076
817.36718750	2.90196085
817.36718750	2.88235283
817.37139893	2.88235283
817.37548828	4.00000000
817.37963867	4.35294104
817.37963867	4.31372547
817.38354492	4.25490189
817.38775635	4.25490189
817.39190674	4.31372547
817.39190674	4.39215708
817.39605713	4.43137264
817.40032959	4.43137264
817.40411377	4.43137264
817.40826416	4.43137264
817.41235352	4.45098019
817.41235352	4.47058821
817.41632080	4.47058821
817.42047119	4.47058821
817.42462158	4.47058821
817.42462158	4.45098019
817.42877197	4.45098019
817.43273926	4.47058821
817.43688965	4.47058821
817.43688965	4.47058821
817.44097900	4.47058821
817.44512939	4.47058821
817.44512939	4.47058821
817.44927979	4.47058821
817.45336914	4.47058821
817.45739746	4.49019623
817.45739746	4.49019623
817.46154785	4.47058821
817.46563721	4.47058821
817.46972656	4.47058821
817.46972656	4.47058821
817.47369385	4.47058821
817.47778320	4.47058821
817.48199463	4.47058821
817.48199463	4.47058821
817.48608398	4.47058821
817.49011230	4.45098019
817.49011230	4.47058821
817.49426270	4.47058821
817.49835205	4.47058821
817.50250244	4.47058821
817.50250244	4.45098019
817.50646973	4.43137264
817.51062012	4.43137264
817.51470947	4.45098019
817.51470947	4.45098019
817.51885986	4.45098019
817.52288818	4.43137264
817.52703857	4.39215708
817.52703857	4.35294104
817.53100586	4.37254906
817.53515625	4.41176462
817.53515625	4.41176462
817.53930664	4.41176462
817.54333496	4.35294104
817.54742432	4.29411745
817.54742432	4.27450991
817.55163574	4.29411745
817.55566406	4.35294104
817.55981445	4.35294104
817.55981445	4.31372547
817.56384277	4.11764717
817.56799316	2.88235283
817.57208252	2.88235283
817.57208252	2.86274505
817.57617188	3.15686274
817.58020020	3.88235283
817.58020020	3.80392146
817.58435059	2.90196085
817.58843994	2.90196085
817.59259033	2.90196085
817.59259033	2.88235283
817.59661865	2.88235283
817.60070801	2.88235283
817.60485840	2.90196085
817.60485840	2.90196085
817.60894775	2.90196085
817.61309814	2.90196085
817.61706543	2.88235283
817.62121582	2.90196085
817.62536621	2.90196085
817.62536621	2.90196085
817.62951660	2.90196085
817.63354492	2.90196085
817.63757324	2.90196085
817.63757324	2.90196085
817.64172363	2.90196085
817.64593506	2.90196085
817.65002441	2.90196085
817.65002441	2.90196085
817.65417480	2.90196085
817.65814209	2.90196085
817.66229248	2.90196085
817.66638184	2.90196085
817.67041016	2.90196085
817.67041016	2.90196085
817.67443848	2.90196085
817.67864990	2.90196085
817.68273926	2.90196085
817.68273926	2.90196085
817.68676758	2.90196085
817.69085693	2.90196085
817.69512939	2.90196085
817.69512939	2.90196085
817.69915771	2.90196085
817.70324707	2.90196085
817.70727539	2.90196085
817.71142578	2.90196085
817.71551514	2.90196085
817.71551514	2.90196085
817.71960449	2.90196085
817.72363281	2.90196085
817.72778320	2.90196085
817.72778320	2.90196085
817.73175049	2.90196085
817.73596191	2.90196085
817.74011230	2.90196085
817.74011230	2.90196085
817.74407959	2.90196085
817.74822998	2.90196085
817.75238037	2.90196085
817.75659180	2.90196085
817.76049805	2.90196085
817.76049805	2.90196085
817.76464844	2.90196085
817.76873779	2.90196085
817.77294922	2.90196085
817.77294922	2.90196085
817.77691650	2.88235283
817.78112793	2.90196085
817.78509521	2.90196085
817.78509521	2.90196085
817.78930664	2.90196085
817.79327393	2.90196085
817.79736328	2.90196085
817.80151367	2.90196085
817.80560303	2.90196085
817.80560303	2.90196085
817.80975342	2.90196085
817.81372070	2.90196085
817.81787109	2.90196085
817.81787109	2.90196085
817.82196045	2.90196085
817.82611084	2.90196085
817.83026123	2.90196085
817.83026123	2.90196085
817.83428955	2.90196085
817.83837891	2.90196085
817.84246826	2.92156863
817.84661865	2.92156863
817.85064697	2.92156863
817.85064697	2.90196085
817.85467529	2.90196085
817.85882568	2.90196085
817.86297607	2.90196085
817.86297607	2.90196085
817.86706543	2.90196085
817.87115479	2.90196085
817.87524414	2.90196085
817.87524414	2.88235283
817.87939453	2.90196085
817.88354492	2.90196085
817.88745117	2.90196085
817.89160156	2.90196085
817.89581299	2.90196085
817.89581299	2.88235283
817.89996338	2.90196085
817.90386963	2.90196085
817.90814209	2.90196085
817.90814209	2.90196085
817.91210938	2.90196085
817.91632080	2.88235283
817.92041016	2.90196085
817.92041016	2.90196085
817.92431641	2.90196085
817.92852783	2.90196085
817.92852783	2.90196085
817.93267822	2.90196085
817.93682861	2.88235283
817.94079590	2.90196085
817.94079590	2.90196085
817.94494629	2.90196085
817.94903564	2.90196085
817.95318604	2.90196085
817.95318604	2.88235283
817.95715332	2.88235283
817.96130371	2.88235283
817.96539307	2.90196085
817.96539307	2.90196085
817.96954346	2.90196085
817.97363281	2.90196085
817.97363281	2.88235283
817.97766113	2.88235283
817.98181152	2.90196085
817.98590088	2.90196085
817.98590088	2.90196085
817.99005127	2.90196085
817.99420166	2.88235283
817.99816895	2.88235283
817.99816895	2.88235283
818.00225830	2.90196085
818.00640869	2.90196085
818.01055908	2.90196085
818.01055908	2.90196085
818.01452637	2.90196085
818.01861572	2.90196085
818.01861572	2.92156863
818.02276611	2.92156863
818.02691650	2.92156863
818.03088379	2.92156863
818.03088379	2.92156863
818.03509521	2.90196085
818.03912354	2.90196085
818.04327393	2.92156863
818.04327393	2.92156863
818.04724121	2.92156863
818.05139160	2.92156863
818.05554199	2.92156863
818.05554199	2.90196085
818.05969238	2.92156863
818.06378174	2.94117641
818.06378174	2.92156863
818.06781006	2.90196085
818.07196045	2.92156863
818.07604980	2.90196085
818.07604980	2.94117641
818.08020020	2.92156863
818.08410645	2.92156863
818.08831787	2.92156863
818.08831787	2.92156863
818.09240723	2.94117641
818.09649658	2.92156863
818.10064697	2.92156863
818.10467529	2.92156863
818.10876465	2.92156863
818.10876465	2.92156863
818.11285400	2.92156863
818.11688232	2.92156863
818.12121582	2.90196085
818.12121582	2.92156863
818.12518311	2.94117641
818.12927246	2.92156863
818.13342285	2.92156863
818.13342285	2.94117641
818.13745117	2.90196085
818.14154053	2.90196085
818.14569092	2.92156863
818.14978027	2.92156863
818.15386963	2.92156863
818.15386963	2.90196085
818.15783691	2.90196085
818.16198730	2.92156863
818.16613770	2.92156863
818.16613770	2.92156863
818.17028809	2.90196085
818.17425537	2.92156863
818.17840576	2.90196085
818.17840576	2.90196085
818.18255615	2.92156863
818.18670654	2.92156863
818.19079590	2.92156863
818.19482422	2.90196085
818.19891357	3.13725495
818.19891357	3.49019599
818.20300293	2.92156863
818.20715332	2.92156863
818.21124268	2.92156863
818.21124268	2.90196085
818.21527100	3.03921580
818.21936035	3.74509811
818.22351074	3.45098042
818.22351074	2.92156863
818.22753906	2.92156863
818.23162842	2.92156863
818.23571777	3.27450991
818.23986816	3.60784316
818.24395752	2.92156863
818.24395752	2.92156863
818.24810791	2.92156863
818.25213623	2.92156863
818.25622559	2.94117641
818.25622559	3.56862736
818.26037598	4.17647076
818.26434326	2.90196085
818.26849365	2.92156863
818.26849365	2.92156863
818.27264404	2.90196085
818.27673340	2.92156863
818.28076172	2.88235283
818.28491211	2.92156863
818.28912354	2.92156863
818.28912354	2.90196085
818.29309082	2.90196085
818.29724121	3.82352948
818.30126953	4.25490189
818.30126953	3.15686274
818.30541992	2.92156863
818.30957031	2.94117641
818.31372070	2.92156863
818.31372070	2.98039222
818.31762695	4.25490189
818.32177734	4.15686274
818.32592773	2.92156863
818.33001709	2.92156863
818.33416748	2.90196085
818.33416748	3.82352948
818.33819580	4.27450991
818.34228516	4.05882359
818.34637451	2.92156863
818.34637451	2.92156863
818.35052490	2.92156863
818.35449219	3.03921580
818.35864258	4.27450991
818.35864258	4.27450991
818.36273193	3.54901958
818.36688232	2.90196085
818.37091064	2.90196085
818.37518311	3.27450991
818.37915039	4.29411745
818.37915039	4.23529434
818.38330078	2.90196085
818.38732910	2.90196085
818.39141846	2.90196085
818.39141846	2.88235283
818.39550781	4.27450991
818.39965820	4.27450991
818.40380859	4.09803915
818.40380859	2.90196085
818.40771484	2.90196085
818.41192627	2.90196085
818.41192627	3.05882359
818.41601563	4.29411745
818.42016602	4.27450991
818.42425537	3.50980401
818.42425537	2.92156863
818.42828369	2.94117641
818.43243408	2.92156863
818.43652344	3.78431368
818.43652344	4.29411745
818.44067383	4.21568632
818.44464111	2.96078420
818.44879150	2.94117641
818.44879150	2.92156863
818.45294189	2.88235283
818.45703125	4.23529434
818.45703125	4.27450991
818.46112061	4.11764717
818.46514893	2.92156863
818.46917725	2.96078420
818.46917725	2.92156863
818.47332764	3.17647052
818.47729492	4.29411745
818.48144531	4.25490189
818.48144531	3.66666675
818.48559570	2.92156863
818.48974609	2.92156863
818.49389648	2.90196085
818.49389648	4.03921556
818.49786377	4.31372547
818.50207520	4.23529434
818.50207520	2.90196085
818.50610352	2.92156863
818.51025391	2.92156863
818.51434326	3.00000000
818.51434326	4.31372547
818.51837158	4.29411745
818.52239990	4.17647076
818.52655029	2.94117641
818.52655029	2.94117641
818.53070068	2.92156863
818.53472900	3.52941179
818.53881836	4.31372547
818.53881836	4.27450991
818.54296875	3.98039222
818.54705811	2.94117641
818.54705811	2.92156863
818.55108643	2.88235283
818.55523682	4.25490189
818.55938721	4.33333349
818.55938721	4.25490189
818.56353760	3.35294127
818.56750488	2.92156863
818.57165527	2.92156863
818.57165527	3.25490189
818.57580566	4.33333349
818.57989502	4.33333349
818.58404541	2.88235283
818.58813477	2.92156863
818.59210205	2.88235283
818.59210205	4.17647076
818.59625244	4.31372547
818.60040283	4.27450991
818.60449219	3.86274505
818.60449219	2.92156863
818.60845947	2.94117641
818.61267090	2.88235283
818.61682129	4.29411745
818.61682129	4.33333349
818.62078857	4.25490189
818.62487793	3.19607854
818.62921143	2.94117641
818.63317871	3.29411769
818.63732910	4.33333349
818.63732910	4.31372547
818.64129639	4.19607830
818.64544678	2.92156863
818.64953613	2.90196085
818.64953613	2.90196085
818.65362549	3.76470590
818.65759277	4.31372547
818.66174316	4.27450991
818.66174316	3.70588231
818.66589355	2.94117641
818.66998291	2.94117641
818.67413330	4.13725471
818.67816162	4.27450991
818.68225098	4.19607830
818.68225098	2.92156863
818.68646240	2.92156863
818.69055176	2.94117641
818.69470215	2.92156863
818.69470215	4.01960802
818.69866943	4.27450991
818.70269775	4.00000000
818.70690918	2.94117641
818.70690918	2.94117641
818.71099854	2.92156863
818.71514893	2.96078420
818.71911621	4.21568632
818.72326660	2.92156863
818.72741699	2.92156863
818.72741699	2.92156863
818.73138428	2.92156863
818.73553467	2.96078420
818.73968506	3.37254906
818.73968506	2.92156863
818.74371338	2.92156863
818.74780273	2.94117641
818.75189209	2.92156863
818.75189209	2.90196085
818.75604248	3.13725495
818.76019287	3.21568632
818.76428223	2.92156863
818.76818848	2.92156863
818.77239990	2.92156863
818.77239990	2.90196085
818.77648926	2.90196085
818.78057861	2.92156863
818.78479004	2.92156863
818.78479004	2.92156863
818.78875732	2.92156863
818.79284668	2.92156863
818.79699707	2.90196085
818.79699707	2.90196085
818.80108643	2.92156863
818.80511475	2.92156863
818.80926514	2.92156863
818.81335449	2.92156863
818.81744385	2.90196085
818.81744385	2.90196085
818.82147217	2.92156863
818.82556152	2.92156863
818.82971191	2.92156863
818.82971191	2.92156863
818.83386230	2.90196085
818.83782959	2.90196085
818.84210205	2.90196085
818.84210205	2.92156863
818.84619141	2.92156863
818.85028076	2.92156863
818.85437012	2.90196085
818.85827637	2.90196085
818.86242676	2.92156863
818.86242676	2.92156863
818.86663818	2.92156863
818.87078857	2.92156863
818.87487793	2.92156863
818.87487793	2.90196085
818.87884521	2.90196085
818.88299561	2.92156863
818.88714600	2.92156863
818.88714600	2.92156863
818.89117432	2.92156863
818.89526367	2.90196085
818.89526367	2.90196085
818.89941406	2.92156863
818.90350342	2.92156863
818.90759277	2.92156863
818.90759277	2.92156863
818.91162109	2.92156863
818.91577148	2.90196085
818.91979980	2.92156863
818.91979980	2.92156863
818.92395020	2.92156863
818.92810059	2.92156863
818.93206787	2.92156863
818.93206787	2.92156863
818.93627930	2.92156863
818.94036865	2.92156863
818.94036865	2.92156863
818.94451904	2.92156863
818.94848633	2.92156863
818.95263672	2.92156863
818.95263672	2.92156863
818.95678711	2.92156863
818.96087646	2.92156863
818.96502686	2.92156863
818.96502686	2.92156863
818.96911621	2.92156863
818.97308350	2.92156863
818.97729492	2.92156863
818.97729492	2.92156863
818.98114014	2.92156863
818.98535156	2.94117641
818.98535156	2.94117641
818.98944092	2.92156863
818.99359131	2.92156863
818.99774170	2.92156863
818.99774170	2.92156863
819.00170898	2.94117641
819.00579834	2.94117641
819.01000977	2.92156863
819.01000977	2.92156863
819.01409912	2.92156863
819.01806641	2.92156863
819.02227783	2.92156863
819.02227783	2.92156863
819.02636719	2.92156863
819.03051758	2.92156863
819.03051758	2.92156863
819.03460693	2.92156863
819.03851318	2.92156863
819.04272461	2.92156863
819.04272461	2.92156863
819.04675293	2.92156863
819.05108643	2.92156863
819.05511475	2.92156863
819.05511475	2.92156863
819.05908203	2.92156863
819.06323242	2.92156863
819.06732178	2.92156863
819.07135010	2.92156863
819.07550049	2.92156863
819.07550049	2.92156863
819.07958984	2.92156863
819.08380127	2.92156863
819.08795166	2.92156863
819.08795166	2.92156863
819.09191895	2.92156863
819.09613037	2.90196085
819.10003662	2.90196085
819.10003662	2.90196085
819.10418701	2.92156863
819.10833740	2.92156863
819.11230469	2.90196085
819.11645508	2.90196085
819.12060547	2.90196085
819.12060547	2.92156863
819.12475586	2.92156863
819.12872314	2.92156863
819.13281250	2.92156863
819.13281250	2.92156863
819.13696289	2.90196085
819.14111328	2.92156863
819.14526367	2.92156863
819.14526367	2.92156863
819.14929199	2.92156863
819.15338135	2.92156863
819.15747070	2.92156863
819.16143799	2.92156863
819.16552734	2.92156863
819.16552734	2.92156863
819.16967773	2.92156863
819.17382813	2.92156863
819.17797852	2.92156863
819.17797852	2.92156863
819.18212891	2.92156863
819.18609619	2.92156863
819.19024658	2.92156863
819.19024658	2.92156863
819.19433594	2.92156863
819.19836426	2.92156863
819.20245361	2.92156863
819.20654297	2.92156863
819.21069336	2.92156863
819.21069336	2.92156863
819.21478271	2.92156863
819.21881104	2.92156863
819.22302246	2.92156863
819.22302246	2.92156863
819.22705078	2.92156863
819.23126221	2.92156863
819.23535156	2.92156863
819.23535156	2.92156863
819.23937988	2.92156863
819.24346924	2.92156863
819.24761963	2.92156863
819.25164795	2.92156863
819.25579834	2.92156863
819.25579834	2.92156863
819.25988770	2.92156863
819.26403809	2.92156863
819.26812744	2.92156863
819.26812744	2.92156863
819.27215576	2.92156863
819.27630615	2.92156863
819.28033447	2.92156863
819.28033447	2.92156863
819.28448486	2.92156863
819.28863525	2.92156863
819.29266357	2.92156863
819.29675293	2.92156863
819.30084229	2.92156863
819.30084229	2.92156863
819.30499268	2.92156863
819.30920410	2.92156863
819.31317139	2.92156863
819.31317139	2.92156863
819.31719971	2.92156863
819.32147217	2.92156863
819.32556152	2.92156863
819.32556152	2.92156863
819.32952881	2.92156863
819.33361816	2.92156863
819.33776855	2.92156863
819.34173584	2.92156863
819.34582520	2.92156863
819.34582520	2.92156863
819.35003662	2.92156863
819.35412598	2.92156863
819.35821533	2.92156863
819.35821533	2.92156863
819.36224365	2.94117641
819.36639404	2.94117641
819.37054443	2.94117641
819.37054443	2.94117641
819.37469482	2.94117641
819.37878418	2.94117641
819.37878418	2.94117641
819.38275146	2.94117641
819.38690186	2.94117641
819.39099121	2.94117641
819.39099121	2.92156863
819.39514160	2.90196085
819.39916992	2.88235283
819.40325928	2.90196085
819.40325928	2.92156863
819.40734863	2.92156863
819.41149902	2.88235283
819.41564941	3.74509811
819.41564941	4.31372547
819.41961670	4.27450991
819.42370605	4.17647076
819.42370605	3.29411769
819.42791748	2.90196085
819.43206787	2.90196085
819.43615723	3.29411769
819.43615723	4.27450991
819.44018555	4.19607830
819.44427490	3.00000000
819.44842529	2.92156863
819.44842529	2.90196085
819.45239258	2.90196085
819.45654297	3.60784316
819.46063232	4.27450991
819.46063232	4.19607830
819.46478271	3.45098042
819.46887207	2.90196085
819.46887207	4.31372547
819.47283936	4.45098019
819.47698975	4.43137264
819.48120117	4.41176462
819.48120117	4.37254906
819.48510742	4.35294104
819.48913574	4.35294104
819.49334717	4.39215708
819.49334717	4.43137264
819.49749756	4.41176462
819.50158691	4.39215708
819.50573730	4.31372547
819.50573730	4.29411745
819.50970459	4.29411745
819.51385498	4.35294104
819.51385498	4.37254906
819.51794434	4.37254906
819.52215576	4.33333349
819.52612305	4.27450991
819.52612305	4.27450991
819.53027344	4.29411745
819.53436279	4.37254906
819.53851318	4.37254906
819.53851318	4.35294104
819.54248047	4.27450991
819.54656982	4.23529434
819.55065918	4.29411745
819.55480957	4.35294104
819.55895996	4.35294104
819.55895996	4.33333349
819.56311035	4.27450991
819.56707764	4.27450991
819.57122803	4.29411745
819.57122803	4.37254906
819.57519531	4.37254906
819.57934570	4.37254906
819.58361816	4.33333349
819.58361816	4.31372547
819.58770752	4.29411745
819.59173584	4.33333349
819.59570313	4.37254906
819.59985352	4.35294104
819.60400391	4.25490189
819.60400391	4.19607830
819.60815430	4.17647076
819.61199951	4.25490189
819.61621094	4.29411745
819.61621094	4.29411745
819.62036133	4.23529434
819.62445068	3.27450991
819.62860107	2.92156863
819.62860107	2.92156863
819.63256836	2.94117641
819.63671875	4.21568632
819.64080811	4.07843161
819.64501953	2.92156863
819.64916992	2.92156863
819.64916992	2.88235283
819.65313721	3.90196085
819.65722656	4.31372547
819.66131592	4.27450991
819.66131592	4.19607830
819.66540527	4.15686274
819.66943359	4.21568632
819.67352295	4.29411745
819.67352295	4.35294104
819.67767334	4.33333349
819.68188477	4.29411745
819.68585205	4.09803915
819.69012451	4.21568632
819.69409180	4.27450991
819.69409180	4.29411745
819.69824219	4.25490189
819.70220947	4.17647076
819.70635986	2.92156863
819.70635986	2.92156863
819.71051025	2.92156863
819.71466064	2.88235283
819.71875000	2.98039222
819.71875000	2.92156863
819.72271729	2.92156863
819.72686768	2.92156863
819.73089600	2.92156863
819.73504639	2.92156863
819.73919678	2.92156863
819.73919678	2.92156863
819.74322510	2.94117641
819.74731445	2.94117641
819.75146484	2.94117641
819.75146484	2.92156863
819.75549316	2.92156863
819.75958252	2.92156863
819.76373291	2.94117641
819.76373291	2.94117641
819.76782227	2.94117641
819.77203369	2.94117641
819.77618408	2.92156863
819.78015137	2.92156863
819.78424072	2.94117641
819.78424072	2.94117641
819.78833008	2.94117641
819.79235840	2.94117641
819.79650879	2.92156863
819.79650879	2.92156863
819.80059814	2.94117641
819.80474854	2.94117641
819.80889893	2.94117641
819.80889893	2.94117641
819.81286621	2.94117641
819.81713867	2.92156863
819.82116699	2.94117641
819.82531738	2.94117641
819.82940674	2.94117641
819.82940674	2.94117641
819.83337402	2.94117641
819.83758545	2.94117641
819.84161377	2.94117641
819.84161377	2.94117641
819.84558105	2.94117641
819.84973145	2.94117641
819.85388184	2.94117641
819.85388184	2.94117641
819.85797119	2.94117641
819.86206055	2.94117641
819.86206055	2.94117641
819.86608887	2.94117641
819.87023926	2.94117641
819.87445068	2.92156863
819.87445068	2.92156863
819.87854004	2.90196085
819.88250732	2.92156863
819.88665771	2.92156863
819.88665771	2.90196085
819.89074707	3.39215684
819.89489746	4.35294104
819.89898682	4.37254906
819.89898682	4.35294104
819.90319824	4.27450991
819.90710449	4.27450991
819.90710449	4.27450991
819.91119385	4.33333349
819.91534424	4.37254906
819.91949463	4.37254906
819.91949463	4.31372547
819.92352295	4.25490189
819.92767334	4.23529434
819.93170166	4.27450991
819.93170166	4.33333349
819.93579102	4.35294104
819.93994141	4.33333349
819.94415283	4.25490189
819.94415283	4.15686274
819.94818115	4.13725471
819.95220947	4.21568632
819.95220947	4.27450991
819.95623779	4.29411745
819.96032715	4.25490189
819.96447754	4.09803915
819.96447754	2.92156863
819.96862793	2.90196085
819.97259521	3.00000000
819.97674561	4.29411745
819.97674561	4.27450991
819.98089600	4.17647076
819.98498535	2.92156863
819.98907471	2.92156863
819.98907471	2.92156863
819.99310303	2.90196085
819.99725342	2.90196085
819.99725342	2.90196085
820.00134277	2.92156863
820.00555420	2.92156863
820.00958252	2.92156863
820.00958252	2.92156863
820.01361084	2.92156863
820.01776123	3.54901958
820.02191162	4.21568632
820.02191162	3.70588231
820.02587891	2.92156863
820.03015137	2.92156863
820.03411865	4.07843161
820.03820801	4.25490189
820.04241943	4.17647076
820.04241943	2.92156863
820.04638672	2.92156863
820.05047607	2.92156863
820.05462646	2.92156863
820.05462646	2.92156863
820.05877686	2.92156863
820.06274414	2.92156863
820.06695557	2.92156863
820.06695557	2.92156863
820.07104492	2.92156863
820.07513428	2.92156863
820.07928467	2.92156863
820.08331299	2.92156863
820.08740234	2.92156863
820.08740234	2.92156863
820.09155273	2.92156863
820.09564209	2.98039222
820.09973145	3.60784316
820.09973145	4.19607830
820.10369873	3.00000000
820.10791016	2.92156863
820.11193848	3.07843137
820.11193848	4.37254906
820.11608887	4.37254906
820.12005615	4.39215708
820.12420654	4.27450991
820.12835693	4.27450991
820.13244629	4.33333349
820.13244629	4.37254906
820.13647461	4.37254906
820.14056396	4.37254906
820.14471436	4.33333349
820.14471436	4.33333349
820.14886475	4.35294104
820.15295410	4.39215708
820.15710449	4.41176462
820.15710449	4.41176462
820.16107178	4.39215708
820.16528320	4.35294104
820.16937256	4.37254906
820.17333984	4.41176462
820.17749023	4.41176462
820.17749023	4.39215708
820.18151855	4.35294104
820.18572998	4.31372547
820.18981934	4.29411745
820.18981934	4.33333349
820.19384766	4.35294104
820.19793701	4.35294104
820.20208740	4.31372547
820.20208740	4.19607830
820.20611572	3.54901958
820.21026611	2.90196085
820.21441650	4.35294104
820.21850586	4.35294104
820.22259521	4.31372547
820.22259521	4.27450991
820.22656250	4.27450991
820.23077393	4.29411745
820.23486328	4.37254906
820.23486328	4.41176462
820.23889160	4.39215708
820.24304199	4.35294104
820.24707031	4.35294104
820.24707031	4.37254906
820.25115967	4.39215708
820.25537109	4.43137264
820.25946045	4.43137264
820.26342773	4.41176462
820.26751709	4.41176462
820.26751709	4.41176462
820.27178955	4.45098019
820.27587891	4.45098019
820.27996826	4.45098019
820.27996826	4.43137264
820.28411865	4.43137264
820.28808594	4.43137264
820.29223633	4.45098019
820.29223633	4.47058821
820.29626465	4.47058821
820.30023193	4.47058821
820.30450439	4.45098019
820.30859375	4.45098019
820.31274414	4.47058821
820.31274414	4.47058821
820.31671143	4.47058821
820.32086182	4.47058821
820.32495117	4.45098019
820.32495117	4.45098019
820.32910156	4.45098019
820.33312988	4.47058821
820.33728027	4.47058821
820.33728027	4.47058821
820.34136963	4.45098019
820.34545898	4.45098019
820.34545898	4.45098019
820.34948730	4.45098019
820.35363770	4.47058821
820.35772705	4.47058821
820.35772705	4.47058821
820.36175537	4.45098019
820.36596680	4.43137264
820.37011719	4.43137264
820.37011719	4.45098019
820.37408447	4.47058821
820.37823486	4.45098019
820.38232422	4.45098019
820.38232422	4.41176462
820.38635254	4.39215708
820.39044189	4.41176462
820.39044189	4.43137264
820.39465332	4.45098019
820.39874268	4.43137264
820.40289307	4.39215708
820.40289307	4.33333349
820.40686035	4.33333349
820.41107178	4.35294104
820.41510010	4.41176462
820.41510010	4.41176462
820.41918945	4.39215708
820.42309570	4.29411745
820.42730713	4.21568632
820.42730713	4.25490189
820.43145752	4.33333349
820.43560791	4.39215708
820.43560791	4.39215708
820.43957520	4.35294104
820.44372559	4.25490189
820.44781494	4.19607830
820.44781494	4.27450991
820.45196533	4.33333349
820.45611572	4.37254906
820.46014404	4.35294104
820.46014404	4.29411745
820.46429443	4.15686274
820.46838379	4.07843161
820.47247314	4.25490189
820.47247314	4.33333349
820.47644043	4.35294104
820.48059082	4.31372547
820.48059082	4.11764717
820.48468018	2.88235283
820.48883057	2.88235283
820.49298096	3.19607854
820.49298096	4.35294104
820.49707031	4.35294104
820.50109863	4.31372547
820.50518799	3.74509811
820.50518799	2.88235283
820.50933838	2.88235283
820.51330566	3.25490189
820.51739502	4.31372547
820.52154541	4.11764717
820.52575684	2.90196085
820.52575684	2.90196085
820.52978516	2.88235283
820.53387451	3.07843137
820.53808594	4.27450991
820.53808594	4.11764717
820.54205322	2.90196085
820.54614258	2.90196085
820.55023193	2.90196085
820.55023193	2.88235283
820.55432129	3.35294127
820.55847168	4.29411745
820.56262207	2.90196085
820.56658936	2.90196085
820.57073975	2.90196085
820.57073975	2.88235283
820.57482910	3.29411769
820.57897949	3.43137264
820.58306885	2.90196085
820.58306885	2.90196085
820.58703613	2.90196085
820.59118652	2.90196085
820.59527588	2.88235283
820.59527588	2.90196085
820.59942627	2.88235283
820.60351563	2.90196085
820.60754395	2.90196085
820.61169434	2.88235283
820.61584473	2.84313726
820.61584473	2.88235283
820.61987305	2.90196085
820.62408447	2.90196085
820.62805176	2.90196085
820.62805176	2.90196085
820.63220215	2.88235283
820.63629150	2.98039222
820.64031982	2.90196085
820.64031982	2.90196085
820.64453125	2.90196085
820.64862061	2.90196085
820.65270996	2.88235283
820.65673828	2.84313726
820.66076660	2.88235283
820.66076660	2.90196085
820.66497803	2.90196085
820.66906738	2.90196085
820.67321777	2.88235283
820.67321777	2.88235283
820.67718506	2.88235283
820.68133545	2.90196085
820.68542480	2.90196085
820.68542480	2.90196085
820.68957520	2.90196085
820.69360352	2.88235283
820.69775391	2.88235283
820.70190430	2.90196085
820.70605469	2.90196085
820.70605469	2.90196085
820.71014404	2.90196085
820.71411133	2.88235283
820.71826172	2.88235283
820.71826172	2.90196085
820.72235107	2.90196085
820.72644043	2.90196085
820.73046875	2.90196085
820.73046875	2.90196085
820.73468018	2.88235283
820.73870850	2.88235283
820.74285889	2.90196085
820.74688721	2.90196085
820.75122070	2.90196085
820.75122070	2.88235283
820.75506592	2.88235283
820.75921631	2.88235283
820.76336670	2.90196085
820.76336670	2.90196085
820.76727295	2.90196085
820.77148438	2.90196085
820.77551270	2.88235283
820.77551270	2.88235283
820.77966309	2.90196085
820.78369141	2.90196085
820.78784180	2.90196085
820.79199219	2.90196085
820.79614258	2.88235283
820.79614258	2.88235283
820.80004883	2.90196085
820.80426025	2.90196085
820.80841064	2.90196085
820.80841064	2.90196085
820.81250000	2.88235283
820.81665039	2.88235283
820.82067871	2.88235283
820.82067871	2.90196085
820.82476807	2.90196085
820.82885742	2.90196085
820.82885742	2.90196085
820.83300781	2.88235283
820.83709717	2.88235283
820.84112549	2.90196085
820.84112549	2.90196085
820.84527588	2.90196085
820.84936523	2.90196085
820.85345459	2.88235283
820.85345459	2.88235283
820.85748291	2.88235283
820.86163330	2.90196085
820.86572266	2.90196085
820.86572266	2.90196085
820.86975098	2.90196085
820.87390137	2.88235283
820.87390137	2.86274505
820.87799072	2.88235283
820.88208008	2.90196085
820.88623047	2.90196085
820.88623047	2.90196085
820.89019775	2.90196085
820.89428711	2.88235283
820.89843750	2.88235283
820.89843750	2.88235283
820.90258789	2.90196085
820.90673828	2.90196085
820.91070557	2.90196085
820.91070557	2.88235283
820.91485596	2.84313726
820.91900635	2.88235283
820.91900635	2.90196085
820.92309570	2.90196085
820.92706299	2.90196085
820.93115234	2.90196085
820.93115234	2.88235283
820.93536377	3.03921580
820.93945313	3.31372547
820.94360352	2.90196085
820.94360352	2.90196085
820.94757080	2.90196085
820.95166016	2.90196085
820.95581055	2.96078420
820.95581055	4.19607830
820.95996094	4.09803915
820.96411133	2.90196085
820.96411133	2.90196085
820.96813965	2.90196085
820.97222900	2.88235283
820.97631836	3.80392146
820.97631836	4.29411745
820.98034668	3.74509811
820.98461914	2.90196085
820.98858643	2.90196085
820.98858643	2.90196085
820.99273682	2.92156863
820.99682617	4.21568632
821.00103760	2.90196085
821.00518799	2.90196085
821.00909424	2.90196085
821.00909424	2.90196085
821.01318359	3.00000000
821.01727295	4.29411745
821.02136230	4.11764717
821.02136230	2.90196085
821.02551270	2.90196085
821.02960205	2.90196085
821.03369141	2.86274505
821.03369141	3.64705873
821.03778076	4.27450991
821.04180908	3.33333325
821.04602051	2.90196085
821.04998779	2.90196085
821.05407715	2.90196085
821.05407715	3.58823538
821.05822754	4.23529434
821.06231689	2.90196085
821.06646729	2.90196085
821.06646729	2.90196085
821.07043457	2.90196085
821.07458496	3.31372547
821.07873535	4.27450991
821.07873535	4.09803915
821.08282471	2.90196085
821.08703613	2.90196085
821.09112549	2.86274505
821.09509277	4.07843161
821.09918213	4.27450991
821.09918213	3.70588231
821.10333252	2.90196085
821.10729980	2.92156863
821.11138916	2.90196085
821.11138916	2.90196085
821.11547852	4.29411745
821.11968994	4.25490189
821.12384033	2.90196085
821.12384033	2.92156863
821.12780762	2.90196085
821.13208008	2.90196085
821.13604736	4.29411745
821.14019775	4.17647076
821.14422607	2.90196085
821.14422607	2.90196085
821.14837646	2.90196085
821.15246582	2.94117641
821.15667725	4.29411745
821.15667725	4.29411745
821.16058350	4.01960802
821.16473389	2.90196085
821.16876221	2.90196085
821.16876221	2.90196085
821.17291260	3.43137264
821.17706299	4.31372547
821.18103027	3.05882359
821.18518066	2.90196085
821.18933105	2.90196085
821.18933105	2.88235283
821.19348145	4.19607830
821.19738770	4.29411745
821.20159912	4.21568632
821.20159912	2.90196085
821.20562744	2.90196085
821.20977783	2.90196085
821.21386719	2.90196085
821.21386719	4.29411745
821.21807861	4.29411745
821.22198486	4.07843161
821.22619629	2.90196085
821.23034668	2.90196085
821.23431396	3.62745094
821.23431396	4.33333349
821.23846436	4.27450991
821.24255371	3.35294127
821.24670410	2.90196085
821.24670410	2.90196085
821.25067139	2.86274505
821.25482178	4.27450991
821.25891113	4.29411745
821.25891113	4.21568632
821.26312256	2.90196085
821.26727295	2.90196085
821.27124023	3.11764717
821.27532959	4.31372547
821.27941895	4.27450991
821.27941895	3.90196085
821.28363037	2.90196085
821.28759766	2.90196085
821.29162598	2.90196085
821.29162598	3.13725495
821.29577637	4.27450991
821.29998779	4.21568632
821.30407715	2.90196085
821.30407715	2.92156863
821.30804443	2.90196085
821.31219482	2.90196085
821.31219482	2.86274505
821.31634521	2.86274505
821.32049561	2.90196085
821.32452393	2.92156863
821.32452393	2.92156863
821.32861328	2.90196085
821.33276367	2.90196085
821.33685303	2.90196085
821.33685303	2.90196085
821.34082031	2.90196085
821.34509277	2.92156863
821.34906006	2.92156863
821.34906006	2.90196085
821.35314941	2.90196085
821.35729980	2.90196085
821.35729980	2.90196085
821.36132813	2.92156863
821.36547852	2.92156863
821.36956787	2.92156863
821.36956787	2.90196085
821.37371826	2.90196085
821.37768555	2.90196085
821.38183594	2.92156863
821.38183594	2.92156863
821.38598633	2.92156863
821.39013672	2.92156863
821.39428711	2.92156863
821.39428711	2.92156863
821.39819336	2.92156863
821.40234375	2.92156863
821.40234375	2.92156863
821.40643311	2.92156863
821.41052246	2.92156863
821.41448975	2.92156863
821.41448975	2.92156863
821.41870117	2.92156863
821.42285156	2.92156863
821.42694092	2.92156863
821.42694092	2.92156863
821.43109131	2.92156863
821.43505859	2.92156863
821.43920898	2.92156863
821.43920898	2.92156863
821.44335938	2.92156863
821.44744873	2.92156863
821.44744873	2.92156863
821.45147705	2.90196085
821.45562744	2.90196085
821.45971680	2.90196085
821.45971680	2.92156863
821.46386719	2.92156863
821.46783447	2.92156863
821.47204590	2.92156863
821.47204590	2.90196085
821.47601318	2.90196085
821.48016357	2.92156863
821.48431396	2.92156863
821.48834229	2.92156863
821.49243164	2.90196085
821.49243164	2.90196085
821.49658203	2.90196085
821.50067139	2.92156863
821.50469971	2.92156863
821.50469971	2.92156863
821.50885010	2.92156863
821.51293945	2.92156863
821.51708984	2.92156863
821.51708984	2.92156863
821.52111816	2.92156863
821.52520752	2.92156863
821.52923584	2.92156863
821.53344727	2.92156863
821.53753662	2.92156863
821.53753662	2.92156863
821.54156494	2.92156863
821.54571533	2.92156863
821.54980469	2.92156863
821.54980469	2.92156863
821.55395508	2.92156863
821.55810547	2.92156863
821.56213379	2.92156863
821.56213379	2.92156863
821.56622314	2.92156863
821.57037354	2.92156863
821.57452393	2.92156863
821.57849121	2.92156863
821.58258057	2.92156863
821.58258057	2.92156863
821.58673096	2.92156863
821.59088135	2.92156863
821.59484863	2.92156863
821.59484863	2.92156863
821.59912109	2.92156863
821.60308838	2.92156863
821.60717773	2.92156863
821.60717773	2.92156863
821.61120605	2.92156863
821.61535645	2.90196085
821.61950684	2.90196085
821.62359619	2.90196085
821.62774658	2.90196085
821.62774658	2.90196085
821.63171387	2.90196085
821.63586426	2.86274505
821.64001465	2.88235283
821.64001465	2.90196085
821.64410400	2.90196085
821.64813232	2.90196085
821.65222168	2.90196085
821.65222168	2.88235283
821.65631104	2.84313726
821.66046143	2.90196085
821.66461182	2.90196085
821.66857910	2.90196085
821.67266846	2.88235283
821.67266846	3.13725495
821.67687988	4.29411745
821.68103027	4.25490189
821.68511963	4.13725471
821.68511963	4.23529434
821.68914795	4.29411745
821.69323730	4.33333349
821.69738770	4.35294104
821.69738770	4.33333349
821.70129395	4.27450991
821.70544434	4.19607830
821.70959473	4.23529434
821.71368408	4.29411745
821.71783447	4.29411745
821.71783447	4.21568632
821.72180176	2.94117641
821.72601318	2.90196085
821.73010254	2.90196085
821.73010254	2.86274505
821.73419189	3.27450991
821.73822021	4.27450991
821.74230957	4.13725471
821.74230957	2.90196085
821.74645996	2.90196085
821.75054932	2.90196085
821.75054932	2.88235283
821.75457764	2.88235283
821.75866699	2.90196085
821.76281738	2.90196085
821.76281738	2.90196085
821.76690674	2.90196085
821.77117920	2.90196085
821.77508545	2.90196085
821.77508545	2.88235283
821.77917480	2.90196085
821.78332520	2.90196085
821.78747559	2.90196085
821.78747559	2.90196085
821.79144287	2.88235283
821.79559326	2.88235283
821.79559326	2.86274505
821.79968262	2.90196085
821.80377197	2.90196085
821.80798340	2.90196085
821.80798340	2.90196085
821.81201172	2.88235283
821.81610107	2.88235283
821.82019043	2.88235283
821.82019043	2.90196085
821.82434082	2.90196085
821.82830811	2.90196085
821.83251953	2.84313726
821.83251953	4.15686274
821.83660889	4.31372547
821.84069824	4.27450991
821.84069824	4.07843161
821.84472656	2.90196085
821.84887695	2.88235283
821.85308838	2.98039222
821.85308838	4.27450991
821.85705566	4.27450991
821.86114502	4.09803915
821.86511230	2.90196085
821.86511230	2.90196085
821.86932373	2.90196085
821.87341309	2.90196085
821.87756348	2.90196085
821.87756348	2.90196085
821.88153076	2.90196085
821.88568115	2.92156863
821.88568115	2.92156863
821.88983154	2.90196085
821.89398193	2.90196085
821.89813232	2.90196085
821.89813232	2.92156863
821.90209961	2.92156863
821.90618896	2.90196085
821.91033936	2.90196085
821.91033936	2.90196085
821.91448975	2.90196085
821.91845703	2.90196085
821.92254639	2.90196085
821.92254639	2.90196085
821.92669678	2.90196085
821.93084717	2.90196085
821.93084717	2.88235283
821.93481445	2.88235283
821.93908691	2.90196085
821.94305420	2.90196085
821.94305420	2.92156863
821.94720459	2.90196085
821.95129395	2.90196085
821.95538330	2.90196085
821.95538330	2.90196085
821.95953369	2.90196085
821.96362305	2.92156863
821.96771240	2.92156863
821.97167969	2.90196085
821.97583008	2.90196085
821.97583008	2.90196085
821.97985840	2.92156863
821.98400879	2.92156863
821.98822021	2.92156863
821.98822021	2.90196085
821.99218750	2.90196085
821.99633789	2.90196085
822.00036621	2.90196085
822.00036621	2.90196085
822.00457764	2.92156863
822.00854492	2.92156863
822.01269531	2.90196085
822.01684570	2.90196085
822.02105713	2.90196085
822.02105713	2.90196085
822.02508545	2.90196085
822.02905273	2.88235283
822.03320313	3.33333325
822.03320313	4.29411745
822.03735352	4.25490189
822.04138184	4.05882359
822.04541016	2.90196085
822.04541016	2.90196085
822.04949951	2.90196085
822.05371094	2.88235283
822.05780029	2.88235283
822.06182861	2.90196085
822.06610107	2.90196085
822.06610107	2.90196085
822.07006836	2.90196085
822.07421875	2.90196085
822.07836914	2.90196085
822.07836914	2.90196085
822.08239746	2.90196085
822.08648682	2.90196085
822.09063721	2.90196085
822.09063721	2.86274505
822.09472656	3.29411769
822.09869385	4.29411745
822.10284424	3.84313726
822.10693359	2.88235283
822.11108398	2.84313726
822.11108398	4.27450991
822.11505127	4.35294104
822.11926270	4.33333349
822.12335205	4.23529434
822.12335205	4.09803915
822.12750244	4.11764717
822.13153076	4.27450991
822.13562012	4.31372547
822.13562012	4.29411745
822.13977051	4.23529434
822.14385986	3.05882359
822.14801025	2.90196085
822.15209961	2.92156863
822.15612793	4.13725471
822.15612793	4.27450991
822.16021729	3.62745094
822.16430664	2.90196085
822.16851807	2.90196085
822.16851807	2.90196085
822.17242432	2.90196085
822.17657471	2.88235283
822.18066406	2.90196085
822.18066406	2.90196085
822.18487549	2.90196085
822.18890381	2.90196085
822.19311523	2.88235283
822.19714355	2.88235283
822.20123291	2.90196085
822.20123291	2.90196085
822.20526123	2.90196085
822.20935059	2.90196085
822.21350098	2.88235283
822.21350098	3.03921580
822.21759033	3.45098042
822.22174072	2.90196085
822.22570801	2.90196085
822.22570801	2.90196085
822.22985840	2.88235283
822.23394775	2.88235283
822.23809814	2.90196085
822.24206543	2.92156863
822.24621582	2.92156863
822.24621582	2.92156863
822.25036621	2.90196085
822.25445557	2.90196085
822.25860596	2.90196085
822.25860596	2.90196085
822.26257324	2.92156863
822.26666260	2.92156863
822.27081299	2.90196085
822.27081299	2.90196085
822.27496338	2.90196085
822.27899170	2.90196085
822.27899170	2.90196085
822.28302002	2.90196085
822.28717041	2.88235283
822.29125977	2.90196085
822.29125977	4.35294104
822.29528809	4.37254906
822.29943848	4.37254906
822.30358887	4.33333349
822.30358887	4.33333349
822.30773926	4.37254906
822.31170654	4.43137264
822.31573486	4.45098019
822.31573486	4.47058821
822.31994629	4.47058821
822.32409668	4.47058821
822.32409668	4.47058821
822.32818604	4.49019623
822.33215332	4.49019623
822.33630371	4.49019623
822.33630371	4.49019623
822.34039307	4.49019623
822.34448242	4.47058821
822.34869385	4.47058821
822.34869385	4.49019623
822.35266113	4.49019623
822.35681152	4.49019623
822.36096191	4.49019623
822.36096191	4.47058821
822.36511230	4.47058821
822.36907959	4.47058821
822.36907959	4.47058821
822.37322998	4.49019623
822.37731934	4.47058821
822.38146973	4.47058821
822.38146973	4.45098019
822.38543701	4.45098019
822.38952637	4.45098019
822.39367676	4.45098019
822.39367676	4.45098019
822.39782715	4.43137264
822.40191650	4.39215708
822.40600586	4.29411745
822.40600586	4.27450991
822.41003418	4.27450991
822.41412354	4.29411745
822.41412354	4.29411745
822.41833496	4.19607830
822.42230225	2.90196085
822.42639160	2.90196085
822.42639160	2.90196085
822.43048096	2.90196085
822.43463135	2.90196085
822.43878174	2.90196085
822.43878174	2.90196085
822.44274902	2.90196085
822.44702148	2.90196085
822.45104980	2.86274505
822.45507813	3.52941179
822.45916748	4.29411745
822.45916748	4.23529434
822.46325684	4.09803915
822.46740723	3.21568632
822.47155762	3.21568632
822.47155762	4.35294104
822.47552490	4.39215708
822.47967529	4.37254906
822.48382568	4.31372547
822.48382568	4.29411745
822.48791504	4.31372547
822.49200439	4.39215708
822.49597168	4.39215708
822.50018311	4.33333349
822.50427246	4.27450991
822.50427246	4.21568632
822.50836182	4.23529434
822.51232910	4.29411745
822.51647949	4.29411745
822.51647949	4.29411745
822.52062988	4.19607830
822.52484131	2.92156863
822.52886963	2.90196085
822.52886963	2.84313726
822.53302002	4.33333349
822.53704834	4.35294104
822.54119873	4.31372547
822.54522705	4.31372547
822.54925537	4.35294104
822.54925537	4.41176462
822.55340576	4.43137264
822.55749512	4.43137264
822.56170654	4.41176462
822.56170654	4.39215708
822.56561279	4.39215708
822.56982422	4.41176462
822.57391357	4.45098019
822.57391357	4.45098019
822.57806396	4.45098019
822.58215332	4.43137264
822.58618164	4.41176462
822.59027100	4.45098019
822.59442139	4.45098019
822.59442139	4.45098019
822.59857178	4.45098019
822.60253906	4.43137264
822.60662842	4.43137264
822.60662842	4.45098019
822.61077881	4.47058821
822.61492920	4.47058821
822.61907959	4.47058821
822.61907959	4.47058821
822.62304688	4.45098019
822.62713623	4.45098019
822.63128662	4.47058821
822.63543701	4.47058821
822.63940430	4.47058821
822.63940430	4.47058821
822.64355469	4.45098019
822.64764404	4.45098019
822.65185547	4.47058821
822.65185547	4.47058821
822.65576172	4.47058821
822.66003418	4.47058821
822.66400146	4.45098019
822.66400146	4.43137264
822.66815186	4.43137264
822.67224121	4.45098019
822.67626953	4.45098019
822.68035889	4.43137264
822.68457031	4.41176462
822.68457031	4.39215708
822.68865967	4.41176462
822.69262695	4.43137264
822.69677734	4.43137264
822.69677734	4.41176462
822.70092773	4.37254906
822.70501709	4.31372547
822.70916748	4.29411745
822.70916748	4.37254906
822.71313477	4.41176462
822.71728516	4.41176462
822.72131348	4.29411745
822.72552490	4.27450991
822.72955322	4.29411745
822.72955322	4.37254906
822.73364258	4.39215708
822.73779297	4.39215708
822.74188232	4.33333349
822.74188232	4.25490189
822.74597168	4.21568632
822.75000000	4.27450991
822.75415039	4.35294104
822.75415039	4.37254906
822.75823975	4.33333349
822.76245117	4.21568632
822.76245117	3.70588231
822.76635742	2.92156863
822.77056885	3.19607854
822.77465820	4.33333349
822.77465820	4.33333349
822.77880859	4.27450991
822.78277588	3.33333325
822.78704834	2.90196085
822.78704834	2.90196085
822.79095459	3.09803915
822.79510498	4.31372547
822.79925537	4.29411745
822.79925537	4.15686274
822.80328369	2.90196085
822.80743408	2.90196085
822.80743408	2.88235283
822.81146240	4.29411745
822.81549072	4.33333349
822.81958008	4.29411745
822.81958008	3.74509811
822.82373047	2.90196085
822.82794189	2.90196085
822.83203125	2.88235283
822.83203125	4.03921556
822.83605957	4.29411745
822.84008789	4.21568632
822.84423828	2.90196085
822.84423828	2.92156863
822.84832764	2.94117641
822.85253906	2.92156863
822.85253906	4.27450991
822.85650635	4.25490189
822.86059570	3.80392146
822.86474609	2.96078420
822.86474609	2.96078420
822.86889648	2.94117641
822.87298584	3.19607854
822.87701416	4.27450991
822.87701416	4.23529434
822.88116455	2.96078420
822.88525391	2.96078420
822.88940430	2.96078420
822.88940430	2.94117641
822.89343262	3.27450991
822.89752197	4.25490189
822.89752197	4.13725471
822.90167236	2.94117641
822.90563965	2.94117641
822.90985107	2.94117641
822.90985107	3.07843137
822.91394043	4.29411745
822.91802979	4.27450991
822.92218018	4.07843161
822.92218018	2.96078420
822.92614746	2.96078420
822.93029785	2.94117641
822.93438721	4.31372547
822.93853760	4.23529434
822.94268799	3.13725495
822.94268799	2.94117641
822.94665527	2.94117641
822.95086670	2.92156863
822.95495605	3.92156863
822.95495605	4.25490189
822.95904541	4.13725471
822.96307373	2.94117641
822.96716309	2.94117641
822.96716309	2.94117641
822.97143555	2.96078420
822.97546387	4.27450991
822.97955322	3.27450991
822.98358154	2.94117641
822.98773193	2.94117641
822.98773193	2.94117641
822.99188232	3.15686274
822.99597168	4.27450991
823.00018311	4.17647076
823.00018311	2.96078420
823.00415039	2.96078420
823.00823975	2.96078420
823.01239014	2.94117641
823.01239014	3.23529410
823.01629639	4.25490189
823.02050781	4.01960802
823.02459717	2.94117641
823.02874756	2.94117641
823.03283691	2.92156863
823.03283691	4.27450991
823.03686523	4.27450991
823.04095459	3.88235283
823.04504395	2.94117641
823.04504395	2.94117641
823.04919434	2.94117641
823.05322266	3.50980401
823.05731201	4.27450991
823.05731201	4.17647076
823.06146240	2.94117641
823.06561279	2.94117641
823.06964111	2.94117641
823.07373047	3.25490189
823.07781982	4.25490189
823.07781982	4.07843161
823.08197021	2.94117641
823.08605957	2.94117641
823.09008789	2.94117641
823.09008789	2.92156863
823.09417725	3.07843137
823.09832764	3.19607854
823.10253906	2.94117641
823.10253906	2.94117641
823.10644531	2.94117641
823.11053467	2.94117641
823.11474609	2.90196085
823.11883545	2.94117641
823.12298584	2.94117641
823.12298584	2.94117641
823.12713623	2.94117641
823.13110352	2.94117641
823.13519287	2.92156863
823.13519287	2.92156863
823.13934326	2.94117641
823.14331055	2.94117641
823.14752197	2.94117641
823.14752197	2.94117641
823.15161133	2.92156863
823.15570068	2.92156863
823.15966797	2.92156863
823.16387939	2.94117641
823.16796875	2.94117641
823.16796875	2.94117641
823.17205811	2.92156863
823.17614746	2.92156863
823.18023682	2.92156863
823.18023682	2.92156863
823.18432617	2.94117641
823.18847656	2.94117641
823.19262695	2.92156863
823.19262695	2.90196085
823.19659424	2.90196085
823.20068359	2.92156863
823.20489502	2.94117641
823.20892334	2.94117641
823.21301270	2.94117641
823.21301270	2.92156863
823.21704102	2.94117641
823.22119141	2.94117641
823.22534180	2.94117641
823.22534180	2.94117641
823.22943115	2.92156863
823.23345947	2.92156863
823.23760986	2.92156863
823.23760986	2.92156863
823.24176025	2.92156863
823.24584961	2.92156863
823.24584961	2.92156863
823.24987793	2.92156863
823.25415039	2.90196085
823.25811768	2.90196085
823.25811768	2.92156863
823.26226807	2.92156863
823.26623535	2.92156863
823.27038574	2.92156863
823.27038574	2.90196085
823.27441406	2.90196085
823.27856445	2.92156863
823.28265381	2.92156863
823.28265381	2.94117641
823.28674316	2.94117641
823.29077148	2.92156863
823.29077148	2.92156863
823.29492188	2.92156863
823.29907227	2.92156863
823.30316162	2.94117641
823.30316162	2.94117641
823.30718994	2.94117641
823.31134033	2.92156863
823.31542969	2.92156863
823.31542969	2.92156863
823.31958008	2.94117641
823.32354736	2.94117641
823.32763672	2.94117641
823.32763672	2.94117641
823.33190918	2.92156863
823.33599854	2.92156863
823.33599854	2.92156863
823.34002686	2.94117641
823.34405518	2.94117641
823.34826660	2.94117641
823.34826660	2.94117641
823.35229492	2.92156863
823.35632324	2.92156863
823.36041260	2.92156863
823.36041260	2.94117641
823.36456299	2.94117641
823.36865234	2.94117641
823.37274170	2.94117641
823.37274170	2.92156863
823.37677002	2.92156863
823.38104248	2.94117641
823.38104248	2.94117641
823.38500977	2.94117641
823.38922119	2.94117641
823.39337158	2.92156863
823.39337158	2.92156863
823.39733887	2.92156863
823.40142822	2.94117641
823.40557861	2.94117641
823.40557861	2.94117641
823.40972900	2.92156863
823.41375732	2.90196085
823.41784668	2.92156863
823.42187500	2.94117641
823.42602539	2.94117641
823.42602539	2.94117641
823.43005371	2.92156863
823.43414307	2.90196085
823.43829346	2.90196085
823.43829346	2.92156863
823.44244385	2.92156863
823.44641113	2.94117641
823.45050049	2.92156863
823.45050049	2.92156863
823.45471191	2.90196085
823.45886230	2.92156863
823.46295166	2.94117641
823.46704102	2.94117641
823.47106934	2.92156863
823.47106934	2.90196085
823.47521973	3.05882359
823.47930908	2.92156863
823.48345947	2.94117641
823.48345947	2.94117641
823.48742676	2.92156863
823.49157715	2.92156863
823.49572754	2.90196085
823.49572754	3.15686274
823.49987793	2.92156863
823.50384521	2.94117641
823.50811768	2.94117641
823.51208496	2.90196085
823.51623535	3.47058821
823.51623535	4.21568632
823.52026367	2.94117641
823.52429199	2.94117641
823.52844238	2.94117641
823.52844238	2.92156863
823.53253174	3.21568632
823.53662109	4.27450991
823.54058838	4.19607830
823.54058838	2.92156863
823.54473877	2.92156863
823.54895020	2.92156863
823.55310059	4.29411745
823.55706787	4.27450991
823.56115723	4.00000000
823.56115723	2.92156863
823.56530762	2.92156863
823.56945801	2.92156863
823.57354736	3.23529410
823.57354736	4.31372547
823.57763672	4.27450991
823.58172607	3.31372547
823.58581543	2.92156863
823.58581543	2.92156863
823.58978271	2.88235283
823.59405518	4.31372547
823.59808350	4.23529434
823.60211182	2.90196085
823.60626221	2.92156863
823.60626221	2.92156863
823.61029053	3.86274505
823.61444092	4.37254906
823.61859131	4.35294104
823.61859131	4.25490189
823.62268066	2.96078420
823.62664795	2.92156863
823.63079834	2.92156863
823.63079834	4.35294104
823.63488770	4.37254906
823.63909912	4.35294104
823.64318848	3.07843137
823.64721680	2.92156863
823.65130615	3.29411769
823.65130615	4.37254906
823.65539551	4.37254906
823.65948486	4.29411745
823.66363525	3.64705873
823.66363525	2.92156863
823.66766357	2.88235283
823.67175293	4.33333349
823.67590332	4.37254906
823.67590332	4.35294104
823.68005371	4.21568632
823.68402100	2.92156863
823.68402100	2.92156863
823.68817139	2.92156863
823.69232178	4.29411745
823.69641113	4.33333349
823.69641113	4.29411745
823.70037842	3.86274505
823.70458984	2.94117641
823.70874023	2.92156863
823.70874023	2.90196085
823.71282959	4.27450991
823.71673584	4.29411745
823.72100830	4.17647076
823.72100830	2.92156863
823.72497559	2.94117641
823.72912598	2.92156863
823.72912598	2.92156863
823.73327637	4.19607830
823.73730469	4.27450991
823.74139404	3.80392146
823.74139404	2.92156863
823.74554443	2.92156863
823.74969482	2.92156863
823.75378418	2.90196085
823.75378418	4.05882359
823.75775146	4.19607830
823.76190186	2.92156863
823.76611328	2.92156863
823.76611328	2.92156863
823.77014160	2.92156863
823.77416992	2.88235283
823.77416992	2.90196085
823.77838135	2.92156863
823.78240967	2.94117641
823.78662109	2.94117641
823.78662109	2.94117641
823.79052734	2.92156863
823.79467773	2.92156863
823.79876709	2.92156863
823.79876709	2.94117641
823.80297852	2.94117641
823.80712891	2.94117641
823.81109619	2.94117641
823.81109619	2.94117641
823.81524658	2.92156863
823.81933594	2.92156863
823.81933594	2.94117641
823.82348633	2.94117641
823.82745361	2.94117641
823.83160400	2.94117641
823.83160400	2.94117641
823.83569336	2.94117641
823.83984375	2.94117641
823.84393311	2.94117641
823.84393311	2.94117641
823.84808350	2.94117641
823.85211182	2.94117641
823.85614014	2.94117641
823.85614014	2.92156863
823.86016846	2.94117641
823.86431885	2.94117641
823.86431885	2.94117641
823.86846924	2.94117641
823.87261963	2.94117641
823.87670898	2.92156863
823.87670898	2.94117641
823.88073730	2.94117641
823.88482666	2.92156863
823.88897705	2.92156863
823.88897705	2.92156863
823.89306641	2.92156863
823.89709473	2.92156863
823.90124512	2.92156863
823.90533447	2.92156863
823.90942383	2.92156863
823.90942383	2.92156863
823.91357422	2.92156863
823.91760254	2.92156863
823.92169189	2.92156863
823.92169189	2.92156863
823.92584229	2.92156863
823.92999268	2.92156863
823.93408203	2.92156863
823.93408203	2.92156863
823.93811035	2.92156863
823.94219971	2.92156863
823.94635010	2.92156863
823.95031738	2.92156863
823.95446777	2.92156863
823.95446777	2.92156863
823.95861816	2.92156863
823.96270752	2.92156863
823.96679688	2.92156863
823.96679688	2.92156863
823.97076416	2.92156863
823.97509766	2.90196085
823.97906494	2.92156863
823.97906494	2.92156863
823.98315430	2.92156863
823.98718262	2.92156863
823.99127197	2.90196085
823.99542236	2.90196085
823.99951172	2.90196085
823.99951172	2.92156863
824.00360107	2.92156863
824.00769043	2.92156863
824.01177979	2.92156863
824.01177979	2.92156863
824.01586914	2.92156863
824.02001953	2.92156863
824.02423096	2.94117641
824.02423096	2.94117641
824.02819824	2.94117641
824.03234863	2.92156863
824.03649902	2.92156863
824.04040527	2.92156863
824.04449463	2.94117641
824.04449463	2.92156863
824.04864502	2.92156863
824.05279541	2.92156863
824.05694580	2.92156863
824.05694580	2.92156863
824.06103516	2.94117641
824.06506348	2.94117641
824.06921387	2.94117641
824.06921387	2.94117641
824.07330322	2.94117641
824.07739258	2.92156863
824.08148193	2.94117641
824.08557129	2.94117641
824.08966064	2.94117641
824.08966064	2.94117641
824.09381104	2.94117641
824.09783936	2.94117641
824.10205078	2.94117641
824.10205078	2.94117641
824.10601807	2.94117641
824.11016846	2.94117641
824.11431885	2.92156863
824.11431885	2.92156863
824.11828613	2.94117641
824.12243652	2.94117641
824.12652588	2.94117641
824.13055420	2.94117641
824.13464355	2.92156863
824.13464355	2.92156863
824.13885498	2.94117641
824.14294434	2.94117641
824.14709473	2.94117641
824.14709473	2.94117641
824.15106201	2.94117641
824.15515137	2.94117641
824.15930176	2.94117641
824.15930176	2.94117641
824.16345215	2.94117641
824.16754150	2.94117641
824.16754150	2.94117641
824.17144775	2.94117641
824.17565918	2.94117641
824.17980957	2.94117641
824.17980957	2.94117641
824.18389893	2.94117641
824.18804932	2.94117641
824.19201660	2.94117641
824.19201660	2.94117641
824.19616699	2.94117641
824.20025635	2.94117641
824.20446777	2.94117641
824.20446777	2.94117641
824.20849609	2.92156863
824.21258545	2.92156863
824.21258545	2.92156863
824.21667480	2.92156863
824.22064209	2.92156863
824.22485352	2.92156863
824.22485352	2.92156863
824.22894287	2.92156863
824.23297119	2.92156863
824.23718262	2.90196085
824.23718262	2.92156863
824.24114990	2.92156863
824.24530029	2.92156863
824.24938965	2.92156863
824.24938965	2.92156863
824.25354004	2.90196085
824.25769043	2.90196085
824.25769043	2.92156863
824.26165771	2.92156863
824.26586914	2.92156863
824.27001953	2.92156863
824.27001953	2.92156863
824.27404785	2.92156863
824.27801514	2.92156863
824.28216553	2.92156863
824.28216553	2.92156863
824.28631592	2.92156863
824.29034424	2.92156863
824.29437256	2.92156863
824.29437256	2.92156863
824.29852295	2.92156863
824.30267334	2.92156863
824.30267334	2.92156863
824.30682373	2.92156863
824.31079102	2.92156863
824.31506348	2.90196085
824.31506348	2.92156863
824.31903076	2.92156863
824.32318115	2.92156863
824.32733154	2.92156863
824.32733154	2.92156863
824.33135986	2.92156863
824.33551025	3.72549009
824.33953857	4.25490189
824.33953857	4.00000000
824.34368896	2.92156863
824.34777832	2.92156863
824.34777832	2.90196085
824.35174561	2.90196085
824.35589600	2.98039222
824.35998535	2.90196085
824.35998535	2.92156863
824.36401367	2.92156863
824.36816406	2.92156863
824.37231445	2.92156863
824.37231445	2.92156863
824.37640381	2.92156863
824.38055420	2.92156863
824.38452148	2.92156863
824.38867188	2.92156863
824.39282227	2.92156863
824.39282227	2.92156863
824.39697266	2.92156863
824.40106201	2.94117641
824.40502930	2.94117641
824.40502930	2.92156863
824.40905762	2.92156863
824.41326904	2.92156863
824.41735840	2.92156863
824.41735840	2.92156863
824.42138672	2.92156863
824.42553711	2.92156863
824.42962646	2.92156863
824.43371582	2.92156863
824.43792725	2.92156863
824.43792725	2.92156863
824.44201660	2.92156863
824.44604492	2.92156863
824.45013428	2.92156863
824.45013428	2.92156863
824.45410156	2.92156863
824.45825195	2.92156863
824.46234131	2.92156863
824.46234131	2.92156863
824.46649170	2.92156863
824.47064209	2.92156863
824.47467041	2.92156863
824.47882080	2.92156863
824.48291016	2.92156863
824.48291016	2.92156863
824.48706055	2.92156863
824.49102783	2.92156863
824.49511719	2.92156863
824.49511719	2.92156863
824.49932861	2.92156863
824.50347900	2.92156863
824.50762939	2.92156863
824.50762939	2.92156863
824.51159668	2.92156863
824.51568604	2.92156863
824.51983643	2.92156863
824.52398682	2.92156863
824.52807617	2.92156863
824.52807617	2.92156863
824.53204346	2.92156863
824.53613281	2.90196085
824.54034424	4.33333349
824.54034424	4.25490189
824.54431152	4.21568632
824.54840088	4.21568632
824.55261230	4.29411745
824.55261230	4.31372547
824.55676270	4.29411745
824.56085205	4.19607830
824.56488037	2.92156863
824.56909180	2.92156863
824.57312012	2.90196085
824.57312012	2.88235283
824.57733154	2.90196085
824.58123779	2.92156863
824.58532715	2.92156863
824.58532715	2.92156863
824.58941650	2.90196085
824.59356689	2.88235283
824.59765625	2.88235283
824.59765625	2.90196085
824.60174561	2.92156863
824.60577393	2.90196085
824.60992432	2.88235283
824.61407471	3.01960778
824.61822510	2.92156863
824.61822510	2.90196085
824.62225342	2.92156863
824.62634277	2.92156863
824.63043213	2.90196085
824.63043213	2.90196085
824.63446045	2.88235283
824.63854980	2.90196085
824.64270020	2.90196085
824.64270020	2.92156863
824.64678955	2.92156863
824.65093994	2.90196085
824.65502930	3.13725495
824.65905762	2.90196085
824.66320801	2.90196085
824.66320801	2.92156863
824.66729736	2.92156863
824.67132568	2.90196085
824.67541504	2.90196085
824.67541504	2.90196085
824.67962646	2.92156863
824.68371582	2.92156863
824.68786621	2.92156863
824.68786621	2.92156863
824.69183350	2.90196085
824.69610596	2.90196085
824.69610596	2.92156863
824.70013428	2.92156863
824.70416260	2.92156863
824.70831299	2.92156863
824.70831299	2.92156863
824.71228027	2.92156863
824.71643066	2.92156863
824.72052002	2.92156863
824.72052002	2.92156863
824.72454834	2.92156863
824.72869873	2.92156863
824.73278809	2.92156863
824.73278809	2.92156863
824.73693848	2.92156863
824.74102783	2.92156863
824.74102783	2.92156863
824.74499512	2.92156863
824.74914551	2.92156863
824.75329590	2.92156863
824.75329590	2.92156863
824.75744629	2.90196085
824.76141357	2.92156863
824.76550293	2.92156863
824.76550293	2.90196085
824.76977539	2.90196085
824.77380371	3.31372547
824.77789307	4.33333349
824.77789307	4.35294104
824.78204346	4.33333349
824.78607178	4.37254906
824.78607178	4.41176462
824.79016113	4.45098019
824.79425049	4.47058821
824.79846191	4.47058821
824.79846191	4.45098019
824.80242920	4.45098019
824.80651855	4.47058821
824.81066895	4.47058821
824.81066895	4.47058821
824.81463623	4.49019623
824.81878662	4.47058821
824.82305908	4.47058821
824.82305908	4.47058821
824.82708740	4.47058821
824.83123779	4.49019623
824.83123779	4.49019623
824.83520508	4.49019623
824.83929443	4.49019623
824.84338379	4.47058821
824.84338379	4.47058821
824.84759521	4.49019623
824.85162354	4.49019623
824.85565186	4.49019623
824.85565186	4.49019623
824.85968018	4.47058821
824.86389160	4.47058821
824.86804199	4.47058821
824.87200928	4.47058821
824.87615967	4.47058821
824.87615967	4.47058821
824.88031006	4.45098019
824.88439941	4.45098019
824.88854980	4.45098019
824.88854980	4.45098019
824.89251709	4.45098019
824.89672852	4.45098019
824.90081787	4.43137264
824.90081787	4.39215708
824.90478516	4.37254906
824.90905762	4.39215708
824.91308594	4.41176462
824.91717529	4.39215708
824.92126465	4.29411745
824.92126465	4.21568632
824.92529297	4.13725471
824.92944336	4.21568632
824.93347168	4.27450991
824.93347168	4.25490189
824.93768311	4.19607830
824.94165039	2.92156863
824.94580078	2.92156863
824.94580078	2.92156863
824.94989014	2.90196085
824.95410156	2.90196085
824.95819092	2.92156863
824.96215820	2.92156863
824.96630859	2.92156863
824.96630859	2.92156863
824.97039795	2.92156863
824.97460938	2.90196085
824.97869873	2.88235283
824.97869873	2.92156863
824.98260498	2.92156863
824.98675537	2.92156863
824.99090576	2.90196085
824.99090576	4.31372547
824.99505615	4.37254906
824.99902344	4.33333349
825.00317383	4.29411745
825.00726318	4.33333349
825.01141357	4.39215708
825.01141357	4.43137264
825.01544189	4.43137264
825.01971436	4.39215708
825.02368164	4.37254906
825.02368164	4.37254906
825.02777100	4.41176462
825.03179932	4.43137264
825.03607178	4.43137264
825.03607178	4.43137264
825.03997803	4.41176462
825.04412842	4.39215708
825.04821777	4.41176462
825.05224609	4.45098019
825.05639648	4.45098019
825.05639648	4.43137264
825.06054688	4.39215708
825.06463623	4.39215708
825.06866455	4.41176462
825.06866455	4.43137264
825.07275391	4.45098019
825.07684326	4.45098019
825.08099365	4.43137264
825.08099365	4.39215708
825.08496094	4.39215708
825.08911133	4.41176462
825.09320068	4.43137264
825.09741211	4.43137264
825.10150146	4.39215708
825.10150146	4.37254906
825.10552979	4.39215708
825.10968018	4.41176462
825.11376953	4.45098019
825.11376953	4.45098019
825.11785889	4.45098019
825.12200928	4.43137264
825.12597656	4.43137264
825.12597656	4.43137264
825.13012695	4.45098019
825.13427734	4.47058821
825.13824463	4.45098019
825.14257813	4.45098019
825.14648438	4.45098019
825.14648438	4.47058821
825.15057373	4.47058821
825.15472412	4.47058821
825.15869141	4.47058821
825.15869141	4.47058821
825.16302490	4.45098019
825.16699219	4.45098019
825.17120361	4.47058821
825.17120361	4.47058821
825.17510986	4.47058821
825.17926025	4.47058821
825.17926025	4.45098019
825.18341064	4.43137264
825.18762207	4.43137264
825.19171143	4.47058821
825.19171143	4.47058821
825.19567871	4.47058821
825.19982910	4.45098019
825.20397949	4.43137264
825.20397949	4.43137264
825.20806885	4.45098019
825.21209717	4.47058821
825.21618652	4.47058821
825.21618652	4.47058821
825.22027588	4.43137264
825.22442627	4.43137264
825.22442627	4.43137264
825.22839355	4.45098019
825.23254395	4.45098019
825.23669434	4.45098019
825.23669434	4.43137264
825.24084473	4.39215708
825.24499512	4.39215708
825.24908447	4.39215708
825.24908447	4.43137264
825.25317383	4.45098019
825.25720215	4.45098019
825.26135254	4.39215708
825.26135254	4.31372547
825.26531982	4.29411745
825.26947021	4.37254906
825.26947021	4.41176462
825.27355957	4.41176462
825.27770996	4.39215708
825.28179932	4.25490189
825.28179932	4.19607830
825.28582764	4.21568632
825.29003906	4.33333349
825.29406738	4.39215708
825.29406738	4.39215708
825.29815674	4.33333349
825.30218506	4.17647076
825.30633545	2.92156863
825.30633545	2.90196085
825.31042480	4.29411745
825.31457520	4.37254906
825.31457520	4.35294104
825.31854248	4.23529434
825.32269287	2.92156863
825.32684326	2.94117641
825.32684326	2.92156863
825.33093262	4.29411745
825.33508301	4.33333349
825.33905029	4.27450991
825.33905029	3.33333325
825.34313965	2.96078420
825.34729004	2.96078420
825.35144043	4.31372547
825.35540771	4.29411745
825.35949707	4.17647076
825.35949707	2.96078420
825.36370850	2.96078420
825.36791992	2.94117641
825.37194824	2.94117641
825.37194824	4.29411745
825.37603760	4.27450991
825.38006592	3.72549009
825.38409424	2.96078420
825.38409424	2.96078420
825.38830566	2.96078420
825.39227295	3.23529410
825.39648438	4.21568632
825.40057373	2.96078420
825.40466309	2.96078420
825.40466309	2.96078420
825.40869141	2.94117641
825.41278076	4.21568632
825.41705322	4.25490189
825.41705322	3.96078420
825.42102051	2.94117641
825.42517090	2.94117641
825.42919922	2.94117641
825.42919922	2.92156863
825.43334961	3.13725495
825.43750000	3.27450991
825.44158936	2.94117641
825.44555664	2.94117641
825.44970703	2.92156863
825.44970703	2.90196085
825.45385742	3.15686274
825.45794678	2.92156863
825.46209717	2.92156863
825.46209717	2.92156863
825.46606445	2.92156863
825.47015381	2.92156863
825.47436523	2.92156863
825.47436523	3.39215684
825.47845459	2.92156863
825.48242188	2.92156863
825.48651123	2.92156863
825.49072266	2.92156863
825.49481201	2.90196085
825.49481201	2.90196085
825.49884033	2.92156863
825.50311279	2.92156863
825.50708008	2.92156863
825.50708008	2.92156863
825.51123047	2.92156863
825.51531982	2.90196085
825.51928711	2.92156863
825.51928711	2.92156863
825.52343750	2.94117641
825.52752686	2.94117641
825.53161621	2.88235283
825.53570557	2.92156863
825.53979492	2.92156863
825.53979492	2.94117641
825.54388428	2.94117641
825.54791260	2.92156863
825.55212402	2.90196085
825.55212402	3.29411769
825.55615234	4.21568632
825.56030273	2.92156863
825.56439209	2.94117641
825.56439209	2.94117641
825.56848145	2.92156863
825.57250977	2.88235283
825.57659912	3.09803915
825.58081055	2.94117641
825.58496094	2.94117641
825.58496094	2.94117641
825.58905029	2.92156863
825.59301758	2.96078420
825.59716797	3.56862736
825.59716797	2.92156863
825.60131836	2.94117641
825.60534668	2.94117641
825.60937500	2.92156863
825.60937500	2.92156863
825.61352539	3.13725495
825.61761475	4.21568632
825.61761475	2.92156863
825.62176514	2.94117641
825.62579346	2.94117641
825.63006592	2.92156863
825.63006592	2.88235283
825.63397217	3.39215684
825.63812256	3.90196085
825.64233398	2.92156863
825.64233398	2.94117641
825.64630127	2.92156863
825.65045166	2.92156863
825.65454102	3.00000000
825.65454102	4.19607830
825.65863037	3.13725495
825.66278076	2.92156863
825.66278076	2.92156863
825.66674805	2.92156863
825.67083740	2.90196085
825.67498779	3.29411769
825.67498779	3.60784316
825.67901611	2.92156863
825.68310547	2.92156863
825.68731689	2.92156863
825.68731689	2.92156863
825.69140625	2.92156863
825.69555664	4.17647076
825.69952393	4.09803915
825.69952393	2.92156863
825.70367432	2.92156863
825.70776367	2.92156863
825.70776367	2.92156863
825.71191406	3.07843137
825.71600342	4.19607830
825.72003174	3.13725495
825.72003174	2.92156863
825.72412109	2.92156863
825.72821045	2.92156863
825.73236084	2.86274505
825.73236084	3.98039222
825.73638916	4.23529434
825.74053955	2.92156863
825.74462891	2.92156863
825.74462891	2.92156863
825.74877930	2.92156863
825.75292969	2.90196085
825.75292969	4.07843161
825.75689697	3.82352948
825.76098633	2.92156863
825.76513672	2.92156863
825.76513672	2.92156863
825.76916504	2.92156863
825.77331543	3.09803915
825.77740479	4.09803915
825.77740479	3.00000000
825.78149414	2.92156863
825.78564453	2.92156863
825.78967285	2.92156863
825.78967285	2.88235283
825.79376221	3.27450991
825.79791260	4.23529434
825.79791260	2.92156863
825.80206299	2.92156863
825.80609131	2.92156863
825.81018066	2.92156863
825.81018066	2.90196085
825.81433105	3.15686274
825.81842041	2.90196085
825.82257080	2.92156863
825.82257080	2.92156863
825.82653809	2.92156863
825.83068848	2.92156863
825.83483887	3.35294127
825.83892822	2.92156863
825.84301758	2.92156863
825.84301758	2.92156863
825.84704590	2.92156863
825.85119629	2.90196085
825.85528564	3.41176462
825.85528564	4.21568632
825.85931396	2.92156863
825.86340332	2.92156863
825.86755371	2.92156863
825.86755371	2.92156863
825.87170410	2.86274505
825.87585449	3.33333325
825.87982178	2.92156863
825.88391113	2.92156863
825.88812256	2.92156863
825.88812256	2.90196085
825.89221191	3.11764717
825.89617920	4.19607830
825.90032959	2.90196085
825.90032959	2.92156863
825.90441895	2.92156863
825.90850830	2.92156863
825.91259766	2.90196085
825.91259766	3.11764717
825.91668701	3.07843137
825.92083740	2.92156863
825.92486572	2.92156863
825.92901611	2.92156863
825.93304443	2.88235283
825.93304443	3.35294127
825.93725586	2.90196085
825.94134521	2.92156863
825.94543457	2.92156863
825.94543457	2.92156863
825.94946289	2.90196085
825.95355225	3.00000000
825.95770264	3.74509811
825.95770264	3.86274505
825.96179199	2.92156863
825.96594238	2.92156863
825.97003174	2.96078420
825.97399902	4.29411745
825.97814941	4.25490189
825.97814941	2.92156863
825.98229980	2.92156863
825.98632813	2.92156863
825.99041748	2.90196085
825.99041748	3.11764717
825.99456787	4.27450991
825.99871826	4.13725471
826.00280762	2.92156863
826.00280762	2.92156863
826.00677490	2.92156863
826.01104736	2.88235283
826.01501465	4.29411745
826.01916504	3.84313726
826.02313232	2.90196085
826.02313232	2.92156863
826.02728271	2.90196085
826.03137207	3.09803915
826.03552246	4.29411745
826.03552246	4.27450991
826.03948975	2.96078420
826.04370117	2.90196085
826.04779053	2.90196085
826.04779053	2.90196085
826.05187988	4.19607830
826.05596924	4.33333349
826.05999756	2.90196085
826.06414795	2.92156863
826.06829834	2.90196085
826.06829834	2.96078420
826.07238770	4.33333349
826.07641602	4.31372547
826.08050537	4.09803915
826.08050537	2.90196085
826.08459473	2.90196085
826.08874512	2.90196085
826.09283447	3.11764717
826.09283447	4.29411745
826.09698486	4.23529434
826.10101318	2.90196085
826.10101318	2.92156863
826.10510254	2.92156863
826.10925293	2.90196085
826.11328125	2.88235283
826.11328125	2.86274505
826.11737061	2.90196085
826.12152100	2.92156863
826.12567139	2.92156863
826.12567139	2.92156863
826.12963867	2.90196085
826.13372803	2.90196085
826.13806152	2.90196085
826.13806152	2.92156863
826.14202881	2.92156863
826.14611816	2.92156863
826.14611816	2.92156863
826.15014648	2.90196085
826.15429688	2.90196085
826.15838623	2.92156863
826.15838623	2.92156863
826.16253662	2.92156863
826.16656494	2.92156863
826.17071533	2.92156863
826.17071533	2.90196085
826.17480469	2.90196085
826.17889404	2.92156863
826.18304443	2.92156863
826.18304443	2.92156863
826.18701172	2.92156863
826.19116211	2.92156863
826.19116211	2.90196085
826.19525146	2.90196085
826.19940186	2.92156863
826.20336914	2.92156863
826.20336914	2.92156863
826.20758057	2.92156863
826.21166992	2.90196085
826.21582031	2.90196085
826.21582031	2.92156863
826.21978760	2.92156863
826.22399902	2.92156863
826.22802734	2.92156863
826.22802734	2.92156863
826.23217773	2.90196085
826.23620605	2.90196085
826.23620605	2.92156863
826.24023438	2.92156863
826.24438477	2.92156863
826.24853516	2.92156863
826.24853516	2.90196085
826.25262451	2.90196085
826.25665283	2.90196085
826.26074219	2.92156863
826.26074219	2.92156863
826.26489258	2.92156863
826.26916504	2.90196085
826.27319336	2.90196085
826.27319336	2.90196085
826.27722168	2.90196085
826.28131104	2.92156863
826.28131104	2.92156863
826.28540039	2.92156863
826.28948975	2.92156863
826.29357910	2.90196085
826.29357910	2.90196085
826.29754639	2.92156863
826.30175781	2.92156863
826.30590820	2.92156863
826.30590820	2.92156863
826.31005859	2.92156863
826.31402588	2.92156863
826.31811523	2.92156863
826.32226563	2.92156863
826.32641602	2.92156863
826.32641602	2.92156863
826.33044434	2.90196085
826.33459473	2.90196085
826.33874512	2.90196085
826.33874512	2.92156863
826.34283447	2.92156863
826.34680176	2.92156863
826.35101318	2.92156863
826.35101318	2.92156863
826.35510254	2.90196085
826.35906982	2.90196085
826.36328125	2.92156863
826.36724854	2.90196085
826.37139893	2.90196085
826.37139893	2.90196085
826.37554932	2.90196085
826.37963867	2.92156863
826.38360596	2.92156863
826.38360596	2.92156863
826.38781738	2.92156863
826.39190674	2.92156863
826.39605713	2.90196085
826.39605713	2.92156863
826.40008545	2.92156863
826.40423584	2.92156863
826.40832520	2.92156863
826.41241455	2.92156863
826.41644287	2.90196085
826.41644287	2.90196085
826.42047119	2.92156863
826.42462158	2.90196085
826.42871094	2.90196085
826.42871094	2.90196085
826.43292236	2.90196085
826.43701172	2.90196085
826.44097900	2.90196085
826.44097900	2.90196085
826.44512939	2.90196085
826.44927979	2.90196085
826.45343018	2.90196085
826.45733643	2.90196085
826.46154785	2.90196085
826.46154785	2.90196085
826.46569824	2.90196085
826.46978760	2.90196085
826.47375488	2.90196085
826.47375488	2.90196085
826.47778320	2.90196085
826.48199463	2.90196085
826.48614502	2.90196085
826.48614502	2.90196085
826.49011230	2.90196085
826.49426270	2.90196085
826.49835205	2.92156863
826.50250244	2.90196085
826.50665283	2.92156863
826.50665283	2.92156863
826.51062012	2.90196085
826.51477051	2.90196085
826.51885986	2.90196085
826.51885986	2.90196085
826.52294922	2.90196085
826.52697754	2.90196085
826.53106689	2.90196085
826.53106689	2.90196085
826.53521729	2.90196085
826.53930664	2.90196085
826.54333496	2.90196085
826.54748535	2.90196085
826.55163574	2.90196085
826.55163574	2.88235283
826.55572510	2.88235283
826.55987549	2.90196085
826.56402588	2.90196085
826.56402588	2.90196085
826.56799316	2.90196085
826.57220459	2.84313726
826.57635498	3.21568632
826.57635498	3.39215684
826.58032227	2.90196085
826.58441162	2.90196085
826.58441162	2.90196085
826.58856201	2.88235283
826.59271240	2.86274505
826.59680176	2.88235283
826.59680176	2.90196085
826.60076904	2.90196085
826.60491943	2.90196085
826.60900879	2.90196085
826.60900879	2.90196085
826.61315918	2.90196085
826.61712646	2.90196085
826.62133789	2.90196085
826.62133789	2.90196085
826.62542725	2.90196085
826.62957764	2.90196085
826.62957764	2.90196085
826.63354492	2.90196085
826.63769531	2.90196085
826.64184570	2.90196085
826.64184570	2.90196085
826.64593506	2.90196085
826.65014648	2.90196085
826.65405273	2.86274505
826.65405273	3.09803915
826.65814209	3.03921580
826.66229248	2.90196085
826.66638184	2.90196085
826.66638184	2.90196085
826.67041016	2.98039222
826.67449951	4.21568632
826.67449951	4.25490189
826.67864990	3.68627453
826.68273926	2.90196085
826.68695068	2.90196085
826.68695068	2.90196085
826.69110107	2.90196085
826.69512939	3.15686274
826.69915771	2.90196085
826.69915771	2.92156863
826.70336914	2.92156863
826.70727539	2.92156863
826.71142578	2.90196085
826.71142578	2.90196085
826.71557617	2.90196085
826.71972656	2.92156863
826.71972656	2.92156863
826.72369385	2.92156863
826.72778320	2.92156863
826.73205566	2.90196085
826.73205566	2.90196085
826.73602295	2.90196085
826.74011230	2.92156863
826.74414063	2.92156863
826.74414063	2.92156863
826.74822998	2.90196085
826.75238037	2.90196085
826.75653076	2.90196085
826.75653076	2.90196085
826.76049805	2.92156863
826.76458740	2.92156863
826.76458740	2.92156863
826.76873779	2.90196085
826.77288818	2.90196085
826.77709961	2.90196085
826.77709961	2.90196085
826.78106689	2.90196085
826.78515625	2.90196085
826.78924561	2.92156863
826.78924561	2.90196085
826.79339600	2.90196085
826.79742432	2.90196085
826.80151367	2.92156863
826.80554199	2.92156863
826.80975342	2.90196085
826.80975342	2.90196085
826.81378174	2.90196085
826.81799316	2.90196085
826.82202148	2.90196085
826.82202148	2.92156863
826.82611084	2.90196085
826.83013916	2.90196085
826.83422852	2.90196085
826.83422852	2.90196085
826.83843994	2.92156863
826.84259033	2.92156863
826.84661865	2.92156863
826.85064697	2.92156863
826.85473633	2.92156863
826.85473633	2.92156863
826.85894775	2.92156863
826.86303711	2.92156863
826.86706543	2.92156863
826.86706543	2.90196085
826.87109375	2.90196085
826.87524414	2.90196085
826.87939453	2.90196085
826.87939453	2.92156863
826.88348389	2.92156863
