1462.62438965	4.09803915
1462.62854004	4.09803915
1462.62854004	4.09803915
1462.63256836	4.09803915
1462.63671875	4.09803915
1462.64074707	4.09803915
1462.64074707	4.09803915
1462.64489746	4.09803915
1462.64904785	4.09803915
1462.64904785	4.09803915
1462.65307617	4.09803915
1462.65710449	4.11764717
1462.66125488	4.11764717
1462.66125488	4.11764717
1462.66540527	4.11764717
1462.66931152	4.09803915
1462.67346191	4.09803915
1462.67346191	4.09803915
1462.67773438	4.05882359
1462.68176270	4.03921556
1462.68591309	3.96078420
1462.68591309	3.92156863
1462.68994141	3.86274505
1462.69409180	3.80392146
1462.69409180	3.68627453
1462.69812012	3.56862736
1462.70227051	3.49019599
1462.70629883	3.43137264
1462.70629883	3.39215684
1462.71044922	3.41176462
1462.71459961	3.41176462
1462.71875000	3.39215684
1462.71875000	3.33333325
1462.72265625	3.27450991
1462.72692871	3.21568632
1462.73095703	3.11764717
1462.73095703	3.05882359
1462.73498535	3.00000000
1462.73925781	2.96078420
1462.73925781	2.86274505
1462.74328613	2.78431368
1462.74731445	2.74509811
1462.75146484	2.72549009
1462.75146484	2.70588231
1462.75561523	2.64705873
1462.75952148	2.56862736
1462.76379395	2.45098042
1462.76379395	2.33333325
1462.76782227	2.29411769
1462.77197266	2.35294127
1462.77612305	2.58823538
1462.78015137	2.76470590
1462.78417969	3.00000000
1462.78417969	3.15686274
1462.78833008	3.21568632
1462.79235840	3.00000000
1462.79638672	2.58823538
1462.79638672	2.05882359
1462.80053711	1.13725495
1462.80456543	0.98039216
1462.80871582	0.98039216
1462.80871582	0.98039216
1462.81286621	0.98039216
1462.81689453	0.98039216
1462.82104492	1.00000000
1462.82519531	1.00000000
1462.82934570	1.00000000
1462.82934570	0.94117647
1462.83325195	1.05882359
1462.83740234	1.21568632
1462.84155273	1.41176474
1462.84155273	1.62745094
1462.84570313	1.80392158
1462.84960938	1.94117641
1462.85375977	2.03921580
1462.85375977	2.15686274
1462.85791016	2.19607854
1462.86193848	2.25490189
1462.86596680	2.23529410
1462.87036133	2.15686274
1462.87426758	2.03921580
1462.87426758	1.94117641
1462.87841797	1.86274505
1462.88256836	1.74509799
1462.88659668	1.56862748
1462.88659668	1.23529410
1462.89062500	1.00000000
1462.89477539	0.94117647
1462.89892578	1.01960790
1462.89892578	1.17647064
1462.90295410	1.31372547
1462.90698242	1.47058821
1462.91113281	1.94117641
1462.91528320	2.15686274
1462.91931152	2.35294127
1462.91931152	2.49019599
1462.92333984	2.58823538
1462.92761230	2.62745094
1462.93164063	2.74509811
1462.93164063	2.82352948
1462.93566895	2.86274505
1462.93981934	2.88235283
1462.94384766	2.90196085
1462.94384766	2.88235283
1462.94812012	2.90196085
1462.95214844	2.90196085
1462.95629883	3.07843137
1462.96032715	3.15686274
1462.96447754	3.23529410
1462.96447754	3.23529410
1462.96850586	3.23529410
1462.97253418	3.27450991
1462.97656250	3.29411769
1462.97656250	3.29411769
1462.98071289	3.31372547
1462.98486328	3.31372547
1462.98901367	3.29411769
1462.98901367	3.31372547
1462.99304199	3.33333325
1462.99731445	3.33333325
1463.00134277	3.35294127
1463.00537109	3.33333325
1463.00952148	3.33333325
1463.00952148	3.33333325
1463.01354980	3.35294127
1463.01770020	3.33333325
1463.02172852	3.33333325
1463.02172852	3.29411769
1463.02575684	3.29411769
1463.02990723	3.27450991
1463.03405762	3.23529410
1463.03405762	3.21568632
1463.03808594	3.15686274
1463.04223633	3.09803915
1463.04626465	2.96078420
1463.05041504	2.90196085
1463.05456543	2.82352948
1463.05456543	2.72549009
1463.05871582	2.62745094
1463.06274414	2.52941179
1463.06677246	2.43137264
1463.06677246	2.37254906
1463.07092285	2.29411769
1463.07507324	2.27450991
1463.07922363	2.23529410
1463.07922363	2.23529410
1463.08325195	2.17647052
1463.08728027	2.09803915
1463.08728027	2.09803915
1463.09143066	2.13725495
1463.09558105	2.21568632
1463.09973145	2.21568632
1463.09973145	2.23529410
1463.10363770	2.21568632
1463.10778809	2.21568632
1463.11193848	2.19607854
1463.11193848	2.19607854
1463.11596680	2.19607854
1463.11999512	2.21568632
1463.12426758	2.27450991
1463.12426758	2.31372547
1463.12829590	2.33333325
1463.13244629	2.31372547
1463.13244629	2.33333325
1463.13635254	2.35294127
1463.14050293	2.35294127
1463.14465332	2.39215684
1463.14465332	2.45098042
1463.14880371	2.52941179
1463.15283203	2.62745094
1463.15698242	2.72549009
1463.15698242	2.82352948
1463.16113281	2.86274505
1463.16516113	2.78431368
1463.16931152	2.76470590
1463.16931152	2.76470590
1463.17333984	2.84313726
1463.17749023	2.92156863
1463.17749023	3.00000000
1463.18151855	3.15686274
1463.18554688	3.17647052
1463.18981934	3.19607854
1463.18981934	3.15686274
1463.19384766	3.19607854
1463.19787598	3.29411769
1463.20202637	3.33333325
1463.20202637	3.27450991
1463.20617676	3.09803915
1463.21032715	2.90196085
1463.21423340	2.68627453
1463.21423340	2.52941179
1463.21850586	2.49019599
1463.22253418	2.49019599
1463.22253418	2.52941179
1463.22656250	2.56862736
1463.23071289	2.62745094
1463.23474121	2.66666675
1463.23474121	2.68627453
1463.23901367	2.64705873
1463.24304199	2.62745094
1463.24707031	2.60784316
1463.24707031	2.60784316
1463.25109863	2.66666675
1463.25524902	2.62745094
1463.25939941	2.54901958
1463.26342773	2.66666675
1463.26757813	2.29411769
1463.26757813	1.54901958
1463.27172852	1.09803927
1463.27575684	0.90196079
1463.28002930	0.88235295
1463.28002930	1.05882359
1463.28393555	1.19607842
1463.28808594	1.23529410
1463.29223633	1.35294116
1463.29223633	1.50980389
1463.29626465	1.72549021
1463.30029297	1.96078432
1463.30432129	2.37254906
1463.30847168	2.62745094
1463.31262207	2.86274505
1463.31262207	3.05882359
1463.31665039	3.31372547
1463.32080078	3.49019599
1463.32495117	3.68627453
1463.32495117	3.88235283
1463.32910156	4.01960802
1463.33300781	4.09803915
1463.33728027	4.09803915
1463.33728027	4.09803915
1463.34130859	4.09803915
1463.34545898	4.07843161
1463.34960938	4.09803915
1463.35351563	4.11764717
1463.35766602	4.11764717
1463.35766602	4.11764717
1463.36181641	4.11764717
1463.36584473	4.11764717
1463.36999512	4.11764717
1463.36999512	4.11764717
1463.37402344	4.11764717
1463.37866211	4.13725471
1463.38220215	4.13725471
1463.38220215	4.15686274
1463.38635254	4.15686274
1463.39038086	4.15686274
1463.39453125	4.13725471
1463.39868164	4.13725471
1463.40270996	4.13725471
1463.40270996	4.13725471
1463.40673828	4.13725471
1463.41088867	4.13725471
1463.41503906	4.13725471
1463.41503906	4.13725471
1463.41906738	4.13725471
1463.42333984	4.13725471
1463.42773438	4.13725471
1463.42773438	4.11764717
1463.43151855	4.11764717
1463.43554688	4.00000000
1463.43969727	3.50980401
1463.44360352	3.29411769
1463.44775391	3.00000000
1463.44775391	2.70588231
1463.45190430	2.49019599
1463.45605469	2.45098042
1463.46020508	2.49019599
1463.46020508	2.68627453
1463.46435547	2.88235283
1463.46838379	3.07843137
1463.47241211	3.09803915
1463.47241211	2.96078420
1463.47644043	2.66666675
1463.48059082	2.15686274
1463.48461914	1.05882359
1463.48876953	1.05882359
1463.49291992	1.05882359
1463.49291992	1.07843137
1463.49694824	1.01960790
1463.50109863	1.01960790
1463.50512695	1.11764705
1463.50512695	1.31372547
1463.50927734	1.52941179
1463.51330566	1.80392158
1463.51745605	2.15686274
1463.51745605	2.52941179
1463.52148438	2.88235283
1463.52563477	3.15686274
1463.52978516	3.56862736
1463.53381348	3.66666675
1463.53784180	3.76470590
1463.53784180	3.78431368
1463.54199219	3.84313726
1463.54614258	3.86274505
1463.55017090	3.88235283
1463.55017090	3.86274505
1463.55419922	3.82352948
1463.55834961	3.70588231
1463.56262207	3.62745094
1463.56262207	3.54901958
1463.56665039	3.47058821
1463.57067871	3.41176462
1463.57067871	3.29411769
1463.57482910	3.19607854
1463.57897949	3.13725495
1463.58300781	3.13725495
1463.58300781	3.00000000
1463.58703613	2.88235283
1463.59130859	2.76470590
1463.59533691	2.68627453
1463.59533691	2.64705873
1463.59936523	2.62745094
1463.60339355	2.58823538
1463.60754395	2.50980401
1463.60754395	2.47058821
1463.61169434	2.50980401
1463.61572266	2.52941179
1463.61572266	2.56862736
1463.61987305	2.58823538
1463.62390137	2.62745094
1463.62805176	2.62745094
1463.62805176	2.64705873
1463.63208008	2.70588231
1463.63623047	2.78431368
1463.64038086	2.78431368
1463.64038086	2.80392146
1463.64440918	2.72549009
1463.64855957	2.70588231
1463.65258789	2.72549009
1463.65258789	2.70588231
1463.65661621	2.66666675
1463.66076660	2.58823538
1463.66076660	2.62745094
1463.66491699	2.62745094
1463.66894531	2.68627453
1463.67309570	2.72549009
1463.67309570	2.74509811
1463.67724609	2.74509811
1463.68127441	2.74509811
1463.68542480	2.76470590
1463.68542480	2.72549009
1463.68957520	2.72549009
1463.69348145	2.78431368
1463.69763184	2.76470590
1463.69763184	2.72549009
1463.70178223	2.64705873
1463.70593262	2.64705873
1463.70593262	2.66666675
1463.71008301	2.66666675
1463.71398926	2.68627453
1463.71826172	2.74509811
1463.71826172	2.82352948
1463.72229004	2.84313726
1463.72631836	2.82352948
1463.73046875	2.82352948
1463.73046875	2.80392146
1463.73449707	2.80392146
1463.73864746	2.80392146
1463.74279785	2.86274505
1463.74682617	2.86274505
1463.75085449	2.76470590
1463.75085449	2.70588231
1463.75500488	2.66666675
1463.75915527	2.68627453
1463.76330566	2.70588231
1463.76330566	2.62745094
1463.76733398	2.52941179
1463.77136230	2.45098042
1463.77551270	2.43137264
1463.77551270	2.47058821
1463.77966309	2.49019599
1463.78356934	2.47058821
1463.78771973	2.49019599
1463.79187012	2.50980401
1463.79602051	2.52941179
1463.79602051	2.54901958
1463.80004883	2.56862736
1463.80432129	2.58823538
1463.80822754	2.49019599
1463.80822754	2.45098042
1463.81250000	2.41176462
1463.81652832	2.37254906
1463.82067871	2.35294127
1463.82067871	2.31372547
1463.82470703	2.33333325
1463.82885742	2.35294127
1463.83288574	2.47058821
1463.83691406	2.50980401
1463.84106445	2.47058821
1463.84106445	2.47058821
1463.84521484	2.41176462
1463.84936523	2.37254906
1463.85339355	2.31372547
1463.85339355	2.37254906
1463.85742188	2.39215684
1463.86157227	2.37254906
1463.86572266	2.37254906
1463.86572266	2.35294127
1463.86975098	2.35294127
1463.87377930	2.37254906
1463.87792969	2.37254906
1463.88208008	2.37254906
1463.88610840	2.37254906
1463.88610840	2.33333325
1463.89025879	2.31372547
1463.89428711	2.25490189
1463.89843750	2.29411769
1463.89843750	2.31372547
1463.90246582	2.29411769
1463.90673828	2.25490189
1463.91088867	2.17647052
1463.91088867	2.15686274
1463.91479492	2.13725495
1463.91894531	2.11764717
1463.92309570	2.09803915
1463.92712402	2.07843137
1463.93127441	2.09803915
1463.93127441	2.15686274
1463.93530273	2.17647052
1463.93945313	2.21568632
1463.94348145	2.23529410
1463.94348145	2.17647052
1463.94750977	2.13725495
1463.95166016	2.13725495
1463.95581055	2.19607854
1463.95581055	2.23529410
1463.95983887	2.27450991
1463.96411133	2.25490189
1463.96801758	2.21568632
1463.97216797	2.21568632
1463.97631836	2.17647052
1463.97631836	2.19607854
1463.98034668	2.25490189
1463.98449707	2.29411769
1463.98864746	2.29411769
1463.98864746	2.25490189
1463.99267578	2.21568632
1463.99670410	2.21568632
1464.00073242	2.23529410
1464.00073242	2.25490189
1464.00488281	2.25490189
1464.00903320	2.19607854
1464.01318359	2.17647052
1464.01733398	2.23529410
1464.02124023	2.25490189
1464.02124023	2.27450991
1464.02539063	2.29411769
1464.02954102	2.27450991
1464.03369141	2.27450991
1464.03369141	2.27450991
1464.03771973	2.27450991
1464.04174805	2.29411769
1464.04589844	2.25490189
1464.04589844	2.23529410
1464.05004883	2.23529410
1464.05419922	2.21568632
1464.05419922	2.21568632
1464.05822754	2.21568632
1464.06225586	2.19607854
1464.06640625	2.19607854
1464.06640625	2.15686274
1464.07043457	2.13725495
1464.07446289	2.17647052
1464.07861328	2.19607854
1464.07861328	2.29411769
1464.08276367	2.39215684
1464.08691406	2.52941179
1464.09106445	2.68627453
1464.09106445	2.88235283
1464.09509277	3.09803915
1464.09924316	3.29411769
1464.09924316	3.41176462
1464.10327148	3.35294127
1464.10729980	3.07843137
1464.11145020	2.60784316
1464.11145020	1.74509799
1464.11547852	1.07843137
1464.11962891	1.07843137
1464.12377930	1.09803927
1464.12377930	1.09803927
1464.12780762	1.09803927
1464.13195801	1.05882359
1464.13598633	1.00000000
1464.13598633	1.07843137
1464.14013672	1.19607842
1464.14428711	1.35294116
1464.14428711	1.58823526
1464.14831543	1.86274505
1464.15234375	2.11764717
1464.15649414	2.39215684
1464.15649414	2.64705873
1464.16064453	2.86274505
1464.16467285	3.00000000
1464.16882324	3.09803915
1464.16882324	3.19607854
1464.17285156	3.25490189
1464.17700195	3.35294127
1464.18090820	3.41176462
1464.18090820	3.45098042
1464.18530273	3.45098042
1464.18920898	3.47058821
1464.18920898	3.47058821
1464.19335938	3.47058821
1464.19738770	3.45098042
1464.20153809	3.43137264
1464.20153809	3.41176462
1464.20568848	3.37254906
1464.20971680	3.33333325
1464.21386719	3.29411769
1464.21386719	3.21568632
1464.21789551	3.15686274
1464.22192383	3.05882359
1464.22619629	2.78431368
1464.23022461	2.72549009
1464.23437500	2.76470590
1464.23437500	2.84313726
1464.23840332	2.94117641
1464.24255371	3.07843137
1464.24670410	3.15686274
1464.24670410	3.17647052
1464.25061035	3.21568632
1464.25476074	3.29411769
1464.25891113	3.33333325
1464.25891113	3.41176462
1464.26306152	3.45098042
1464.26721191	3.43137264
1464.27136230	3.39215684
1464.27539063	3.37254906
1464.27941895	3.41176462
1464.27941895	3.43137264
1464.28356934	3.41176462
1464.28759766	3.37254906
1464.29162598	3.35294127
1464.29162598	3.41176462
1464.29577637	3.45098042
1464.29992676	3.47058821
1464.30407715	3.50980401
1464.30407715	3.50980401
1464.30798340	3.45098042
1464.31225586	3.43137264
1464.31628418	3.43137264
1464.32043457	3.35294127
1464.32458496	3.27450991
1464.32458496	3.09803915
1464.32861328	2.80392146
1464.33276367	2.50980401
1464.33679199	2.54901958
1464.33679199	2.70588231
1464.34082031	2.92156863
1464.34497070	3.09803915
1464.34899902	3.19607854
1464.34899902	3.27450991
1464.35314941	3.39215684
1464.35729980	3.47058821
1464.36132813	3.58823538
1464.36547852	3.60784316
1464.36950684	3.60784316
1464.36950684	3.74509811
1464.37365723	3.94117641
1464.37768555	4.17647076
1464.38183594	4.17647076
1464.38183594	4.17647076
1464.38598633	4.17647076
1464.39001465	4.13725471
1464.39416504	3.92156863
1464.39416504	3.54901958
1464.39831543	3.33333325
1464.40234375	3.11764717
1464.40649414	2.49019599
1464.41064453	2.03921580
1464.41455078	1.52941179
1464.41455078	1.19607842
1464.41870117	1.11764705
1464.42272949	1.25490201
1464.42700195	1.50980389
1464.42700195	1.82352936
1464.43090820	2.11764717
1464.43505859	2.33333325
1464.43933105	2.37254906
1464.43933105	2.39215684
1464.44335938	2.37254906
1464.44738770	2.43137264
1464.45141602	2.68627453
1464.45556641	2.84313726
1464.45959473	3.03921580
1464.45959473	3.21568632
1464.46374512	3.35294127
1464.46777344	3.49019599
1464.47192383	3.50980401
1464.47192383	3.52941179
1464.47595215	3.56862736
1464.48010254	3.66666675
1464.48425293	3.72549009
1464.48425293	3.74509811
1464.48828125	3.88235283
1464.49230957	3.88235283
1464.49658203	3.96078420
1464.50073242	4.01960802
1464.50463867	4.03921556
1464.50463867	4.00000000
1464.50878906	4.03921556
1464.51293945	4.03921556
1464.51696777	4.00000000
1464.51696777	3.94117641
1464.52099609	3.80392146
1464.52526855	3.56862736
1464.52929688	3.29411769
1464.52929688	3.01960778
1464.53344727	2.76470590
1464.53747559	2.56862736
1464.53747559	2.41176462
1464.54150391	2.31372547
1464.54565430	2.23529410
1464.54980469	2.21568632
1464.54980469	2.21568632
1464.55395508	2.27450991
1464.55786133	2.35294127
1464.56201172	2.43137264
1464.56201172	2.56862736
1464.56616211	2.64705873
1464.57031250	2.68627453
1464.57446289	2.70588231
1464.57446289	2.78431368
1464.57836914	2.84313726
1464.58251953	2.96078420
1464.58251953	3.07843137
1464.58666992	3.19607854
1464.59069824	3.31372547
1464.59484863	3.43137264
1464.59484863	3.54901958
1464.59887695	3.68627453
1464.60302734	3.76470590
1464.60705566	3.82352948
1464.60705566	3.86274505
1464.61120605	3.86274505
1464.61523438	3.84313726
1464.61938477	3.74509811
1464.61938477	3.66666675
1464.62353516	3.60784316
1464.62768555	3.60784316
1464.62768555	3.60784316
1464.63159180	3.62745094
1464.63574219	3.62745094
1464.63989258	3.58823538
1464.63989258	3.62745094
1464.64404297	3.66666675
1464.64807129	3.64705873
1464.65222168	3.58823538
1464.65222168	3.54901958
1464.65637207	3.52941179
1464.66040039	3.52941179
1464.66455078	3.54901958
1464.66455078	3.56862736
1464.66857910	3.60784316
1464.67272949	3.58823538
1464.67272949	3.58823538
1464.67687988	3.54901958
1464.68090820	3.50980401
1464.68505859	3.50980401
1464.68505859	3.50980401
1464.68896484	3.58823538
1464.69311523	3.62745094
1464.69726563	3.66666675
1464.69726563	3.68627453
1464.70129395	3.70588231
1464.70544434	3.76470590
1464.70947266	3.92156863
1464.71374512	4.00000000
1464.71789551	4.13725471
1464.71789551	4.19607830
1464.72180176	4.19607830
1464.72583008	4.17647076
1464.72998047	4.17647076
1464.72998047	4.03921556
1464.73413086	3.56862736
1464.73828125	2.72549009
1464.74230957	1.43137252
1464.74230957	1.21568632
1464.74633789	1.21568632
1464.75048828	1.21568632
1464.75463867	1.23529410
1464.75866699	1.23529410
1464.76281738	1.11764705
1464.76281738	1.07843137
1464.76684570	1.15686274
1464.77099609	1.43137252
1464.77502441	1.78431368
1464.77502441	2.09803915
1464.77929688	2.37254906
1464.78332520	2.62745094
1464.78747559	2.82352948
1464.78747559	2.94117641
1464.79138184	2.98039222
1464.79553223	2.96078420
1464.79968262	2.92156863
1464.80371094	2.88235283
1464.80786133	2.84313726
1464.80786133	2.80392146
1464.81188965	2.78431368
1464.81604004	2.80392146
1464.82019043	2.80392146
1464.82019043	2.84313726
1464.82434082	2.86274505
1464.82824707	2.84313726
1464.83239746	2.84313726
1464.83239746	2.84313726
1464.83654785	2.84313726
1464.84069824	2.86274505
1464.84484863	2.86274505
1464.84887695	2.88235283
1464.85290527	2.90196085
1464.85290527	2.92156863
1464.85705566	3.00000000
1464.86120605	3.07843137
1464.86523438	3.13725495
1464.86523438	3.17647052
1464.86926270	3.23529410
1464.87329102	3.25490189
1464.87756348	3.25490189
1464.87756348	3.25490189
1464.88146973	3.27450991
1464.88562012	3.29411769
1464.88977051	3.31372547
1464.89392090	3.31372547
1464.89807129	3.31372547
1464.89807129	3.31372547
1464.90209961	3.31372547
1464.90612793	3.31372547
1464.91040039	3.33333325
1464.91040039	3.33333325
1464.91442871	3.33333325
1464.91833496	3.35294127
1464.92248535	3.35294127
1464.92248535	3.35294127
1464.92651367	3.37254906
1464.93078613	3.37254906
1464.93481445	3.41176462
1464.93884277	3.39215684
1464.94299316	3.41176462
1464.94299316	3.39215684
1464.94714355	3.39215684
1464.95129395	3.39215684
1464.95532227	3.39215684
1464.95532227	3.39215684
1464.95935059	3.35294127
1464.96350098	3.31372547
1464.96765137	3.25490189
1464.96765137	3.19607854
1464.97167969	3.15686274
1464.97583008	3.13725495
1464.97985840	3.03921580
1464.98400879	3.01960778
1464.98803711	3.00000000
1464.98803711	2.96078420
1464.99218750	2.94117641
1464.99633789	2.86274505
1465.00036621	2.78431368
1465.00036621	2.70588231
1465.00451660	2.64705873
1465.00854492	2.62745094
1465.01257324	2.60784316
1465.01257324	2.56862736
1465.01672363	2.49019599
1465.02087402	2.45098042
1465.02087402	2.41176462
1465.02490234	2.37254906
1465.02893066	2.33333325
1465.03320313	2.29411769
1465.03320313	2.27450991
1465.03723145	2.25490189
1465.04138184	2.21568632
1465.04541016	2.19607854
1465.04541016	2.15686274
1465.04956055	2.13725495
1465.05358887	2.13725495
1465.05773926	2.11764717
1465.05773926	2.09803915
1465.06176758	2.11764717
1465.06591797	2.11764717
1465.06591797	2.13725495
1465.07006836	2.19607854
1465.07421875	2.23529410
1465.07824707	2.31372547
1465.07824707	2.33333325
1465.08227539	2.35294127
1465.08642578	2.39215684
1465.09057617	2.43137264
1465.09057617	2.47058821
1465.09472656	2.49019599
1465.09863281	2.49019599
1465.10278320	2.47058821
1465.10278320	2.45098042
1465.10693359	2.43137264
1465.11108398	2.41176462
1465.11108398	2.41176462
1465.11499023	2.39215684
1465.11926270	2.43137264
1465.12329102	2.43137264
1465.12329102	2.45098042
1465.12744141	2.50980401
1465.13159180	2.52941179
1465.13574219	2.52941179
1465.13574219	2.52941179
1465.13964844	2.52941179
1465.14379883	2.52941179
1465.14794922	2.56862736
1465.14794922	2.54901958
1465.15197754	2.54901958
1465.15600586	2.56862736
1465.15600586	2.62745094
1465.16015625	2.68627453
1465.16430664	2.70588231
1465.16845703	2.70588231
1465.16845703	2.68627453
1465.17248535	2.62745094
1465.17651367	2.62745094
1465.18066406	2.60784316
1465.18066406	2.56862736
1465.18481445	2.47058821
1465.18884277	2.39215684
1465.19287109	2.25490189
1465.19702148	2.21568632
1465.20117188	2.19607854
1465.20117188	2.15686274
1465.20532227	2.11764717
1465.20922852	2.09803915
1465.21350098	2.01960778
1465.21350098	1.92156863
1465.21752930	1.82352936
1465.22167969	1.68627453
1465.22558594	1.62745094
1465.22558594	1.56862748
1465.22973633	1.54901958
1465.23388672	1.50980389
1465.23803711	1.41176474
1465.24206543	1.45098042
1465.24633789	1.49019611
1465.24633789	1.50980389
1465.25024414	1.50980389
1465.25439453	1.47058821
1465.25854492	1.41176474
1465.25854492	1.35294116
1465.26257324	1.31372547
1465.26660156	1.27450979
1465.27075195	1.25490201
1465.27075195	1.31372547
1465.27490234	1.39215684
1465.27893066	1.47058821
1465.28295898	1.58823526
1465.28710938	1.58823526
1465.29125977	1.56862748
1465.29125977	1.52941179
1465.29516602	1.49019611
1465.29943848	1.49019611
1465.30358887	1.50980389
1465.30358887	1.62745094
1465.30761719	1.80392158
1465.31176758	2.01960778
1465.31579590	2.27450991
1465.31579590	2.52941179
1465.31994629	2.72549009
1465.32409668	2.64705873
1465.32812500	1.76470590
1465.33227539	1.21568632
1465.33630371	1.07843137
1465.33630371	1.07843137
1465.34045410	1.09803927
1465.34448242	1.09803927
1465.34863281	1.09803927
1465.34863281	1.11764705
1465.35266113	1.11764705
1465.35681152	1.05882359
1465.36096191	1.17647064
1465.36096191	1.45098042
1465.36499023	1.88235295
1465.36901855	2.47058821
1465.37316895	3.60784316
1465.37719727	4.19607830
1465.38134766	4.19607830
1465.38134766	4.19607830
1465.38537598	4.21568632
1465.38952637	4.21568632
1465.39367676	4.21568632
1465.39367676	4.21568632
1465.39782715	4.19607830
1465.40185547	4.19607830
1465.40588379	4.19607830
1465.40588379	4.19607830
1465.41003418	4.19607830
1465.41418457	4.19607830
1465.41821289	4.19607830
1465.42224121	4.19607830
1465.42639160	4.19607830
1465.42639160	4.19607830
1465.43041992	4.19607830
1465.43457031	4.19607830
1465.43872070	4.19607830
1465.43872070	4.19607830
1465.44274902	4.19607830
1465.44689941	4.19607830
1465.45104980	4.19607830
1465.45104980	4.19607830
1465.45520020	4.19607830
1465.45922852	4.19607830
1465.46325684	4.19607830
1465.46740723	4.19607830
1465.47155762	4.19607830
1465.47155762	4.21568632
1465.47546387	4.19607830
1465.47973633	4.21568632
1465.48388672	4.19607830
1465.48388672	4.21568632
1465.48791504	4.19607830
1465.49206543	4.19607830
1465.49597168	4.19607830
1465.49597168	4.19607830
1465.50024414	4.19607830
1465.50427246	4.19607830
1465.50427246	4.19607830
1465.50842285	4.19607830
1465.51245117	4.19607830
1465.51647949	4.17647076
1465.51647949	4.11764717
1465.52062988	4.19607830
1465.52478027	4.19607830
1465.52893066	4.19607830
1465.52893066	4.19607830
1465.53295898	4.19607830
1465.53698730	4.19607830
1465.54113770	4.19607830
1465.54113770	4.19607830
1465.54516602	3.84313726
1465.54919434	3.70588231
1465.54919434	3.56862736
1465.55346680	3.58823538
1465.55749512	3.56862736
1465.56164551	3.45098042
1465.56164551	3.35294127
1465.56579590	3.37254906
1465.56982422	3.39215684
1465.57397461	3.35294127
1465.57397461	3.17647052
1465.57800293	2.86274505
1465.58215332	2.52941179
1465.58630371	2.31372547
1465.58630371	2.19607854
1465.59033203	2.13725495
1465.59436035	2.00000000
1465.59436035	1.84313726
1465.59863281	1.66666663
1465.60253906	1.47058821
1465.60668945	1.15686274
1465.60668945	1.25490201
1465.61083984	1.25490201
1465.61486816	1.25490201
1465.61901855	1.19607842
1465.61901855	1.23529410
1465.62304688	1.21568632
1465.62731934	1.19607842
1465.63122559	1.11764705
1465.63122559	1.21568632
1465.63537598	1.21568632
1465.63940430	1.19607842
1465.63940430	1.19607842
1465.64367676	1.21568632
1465.64782715	1.21568632
1465.65173340	1.19607842
1465.65173340	1.23529410
1465.65576172	1.23529410
1465.65991211	1.23529410
1465.66394043	1.25490201
1465.66394043	1.27450979
1465.66809082	1.33333337
1465.67224121	1.33333337
1465.67626953	1.21568632
1465.68029785	1.23529410
1465.68444824	1.23529410
1465.68444824	1.27450979
1465.68859863	1.29411769
1465.69262695	1.31372547
1465.69677734	1.37254906
1465.69677734	1.37254906
1465.70092773	1.39215684
1465.70507813	1.39215684
1465.70910645	1.37254906
1465.70910645	1.43137252
1465.71325684	1.50980389
1465.71728516	1.56862748
1465.72143555	1.54901958
1465.72546387	1.52941179
1465.72949219	1.50980389
1465.72949219	1.54901958
1465.73352051	1.58823526
1465.73779297	1.66666663
1465.74182129	1.72549021
1465.74182129	1.70588231
1465.74584961	1.66666663
1465.75000000	1.64705884
1465.75415039	1.64705884
1465.75415039	1.72549021
1465.75830078	1.82352936
1465.76245117	1.94117641
1465.76635742	1.90196073
1465.77050781	1.90196073
1465.77465820	1.92156863
1465.77465820	1.92156863
1465.77880859	1.96078432
1465.78271484	2.01960778
1465.78686523	2.00000000
1465.78686523	1.98039210
1465.79101563	1.96078432
1465.79504395	1.94117641
1465.79919434	1.88235295
1465.79919434	1.88235295
1465.80322266	1.86274505
1465.80737305	1.88235295
1465.81152344	1.98039210
1465.81567383	2.00000000
1465.81970215	2.01960778
1465.81970215	2.03921580
1465.82373047	2.05882359
1465.82788086	2.05882359
1465.83203125	2.13725495
1465.83203125	2.29411769
1465.83605957	2.37254906
1465.84033203	2.43137264
1465.84423828	2.43137264
1465.84423828	2.45098042
1465.84838867	2.41176462
1465.85253906	2.39215684
1465.85656738	2.35294127
1465.86071777	2.39215684
1465.86474609	2.47058821
1465.86474609	2.45098042
1465.86889648	2.39215684
1465.87292480	2.33333325
1465.87707520	2.25490189
1465.87707520	2.17647052
1465.88110352	2.07843137
1465.88525391	2.03921580
1465.88940430	2.09803915
1465.88940430	2.29411769
1465.89343262	2.50980401
1465.89758301	2.80392146
1465.90161133	3.33333325
1465.90576172	3.45098042
1465.90966797	3.25490189
1465.90966797	2.88235283
1465.91394043	2.39215684
1465.91809082	1.47058821
1465.92211914	1.19607842
1465.92211914	1.19607842
1465.92626953	1.21568632
1465.93029785	1.21568632
1465.93444824	1.21568632
1465.93444824	1.23529410
1465.93847656	1.11764705
1465.94262695	1.11764705
1465.94262695	1.25490201
1465.94665527	1.43137252
1465.95080566	1.66666663
1465.95483398	1.92156863
1465.95483398	2.15686274
1465.95898438	2.41176462
1465.96301270	2.68627453
1465.96728516	2.92156863
1465.96728516	3.15686274
1465.97131348	3.39215684
1465.97546387	3.54901958
1465.97961426	3.64705873
1465.97961426	3.70588231
1465.98352051	3.74509811
1465.98767090	3.78431368
1465.98767090	3.78431368
1465.99169922	3.86274505
1465.99597168	3.90196085
1465.99987793	3.88235283
1465.99987793	3.90196085
1466.00390625	3.88235283
1466.00805664	3.80392146
1466.01232910	3.68627453
1466.01232910	3.62745094
1466.01623535	3.60784316
1466.02038574	3.62745094
1466.02453613	3.62745094
1466.02453613	3.58823538
1466.02868652	3.49019599
1466.03271484	3.43137264
1466.03271484	3.39215684
1466.03686523	3.41176462
1466.04089355	3.43137264
1466.04504395	3.43137264
1466.04504395	3.43137264
1466.04919434	3.45098042
1466.05322266	3.45098042
1466.05737305	3.39215684
1466.05737305	3.39215684
1466.06140137	3.41176462
1466.06542969	3.43137264
1466.06958008	3.37254906
1466.06958008	3.35294127
1466.07360840	3.31372547
1466.07775879	3.31372547
1466.07775879	3.39215684
1466.08190918	3.45098042
1466.08605957	3.49019599
1466.08996582	3.43137264
1466.08996582	3.39215684
1466.09411621	3.35294127
1466.09826660	3.37254906
1466.10241699	3.41176462
1466.10241699	3.41176462
1466.10644531	3.49019599
1466.11059570	3.47058821
1466.11462402	3.49019599
1466.11877441	3.54901958
1466.12292480	3.54901958
1466.12292480	3.60784316
1466.12683105	3.56862736
1466.13098145	3.56862736
1466.13513184	3.56862736
1466.13513184	3.58823538
1466.13940430	3.58823538
1466.14318848	3.60784316
1466.14733887	3.58823538
1466.14733887	3.52941179
1466.15148926	3.50980401
1466.15563965	3.49019599
1466.15954590	3.35294127
1466.16381836	3.23529410
1466.16796875	3.13725495
1466.16796875	3.05882359
1466.17199707	3.00000000
1466.17614746	2.94117641
1466.18029785	2.90196085
1466.18029785	2.82352948
1466.18420410	2.70588231
1466.18835449	2.62745094
1466.19250488	2.60784316
1466.19250488	2.60784316
1466.19653320	2.54901958
1466.20068359	2.47058821
1466.20471191	2.45098042
1466.20886230	2.47058821
1466.21301270	2.47058821
1466.21301270	2.45098042
1466.21704102	2.45098042
1466.22106934	2.45098042
1466.22534180	2.45098042
1466.22534180	2.45098042
1466.22937012	2.43137264
1466.23339844	2.47058821
1466.23754883	2.49019599
1466.23754883	2.54901958
1466.24157715	2.62745094
1466.24572754	2.66666675
1466.24975586	2.64705873
1466.25378418	2.70588231
1466.25805664	2.76470590
1466.25805664	2.76470590
1466.26208496	2.76470590
1466.26623535	2.70588231
1466.27026367	2.70588231
1466.27026367	2.70588231
1466.27441406	2.66666675
1466.27856445	2.68627453
1466.28259277	2.70588231
1466.28259277	2.70588231
1466.28662109	2.70588231
1466.29077148	2.64705873
1466.29492188	2.58823538
1466.29907227	2.54901958
1466.30310059	2.54901958
1466.30310059	2.50980401
1466.30737305	2.47058821
1466.31127930	2.49019599
1466.31542969	2.49019599
1466.31542969	2.52941179
1466.31945801	2.54901958
1466.32348633	2.52941179
1466.32763672	2.50980401
1466.32763672	2.49019599
1466.33178711	2.54901958
1466.33593750	2.52941179
1466.33996582	2.54901958
1466.34399414	2.54901958
1466.34826660	2.54901958
1466.34826660	2.54901958
1466.35229492	2.54901958
1466.35644531	2.58823538
1466.36047363	2.58823538
1466.36047363	2.60784316
1466.36450195	2.58823538
1466.36865234	2.52941179
1466.37280273	2.49019599
1466.37280273	2.47058821
1466.37683105	2.49019599
1466.38085938	2.52941179
1466.38500977	2.49019599
1466.38916016	2.45098042
1466.39343262	2.41176462
1466.39343262	2.39215684
1466.39733887	2.37254906
1466.40148926	2.37254906
1466.40551758	2.37254906
1466.40551758	2.39215684
1466.40966797	2.41176462
1466.41369629	2.45098042
1466.41784668	2.47058821
1466.41784668	2.52941179
1466.42187500	2.58823538
1466.42602539	2.56862736
1466.42602539	2.54901958
1466.43005371	2.54901958
1466.43432617	2.54901958
1466.43823242	2.52941179
1466.43823242	2.50980401
1466.44238281	2.47058821
1466.44641113	2.41176462
1466.45056152	2.35294127
1466.45056152	2.39215684
1466.45471191	2.49019599
1466.45886230	2.62745094
1466.46301270	2.76470590
1466.46301270	2.84313726
1466.46691895	2.92156863
1466.47106934	2.92156863
1466.47106934	2.72549009
1466.47521973	2.52941179
1466.47937012	2.25490189
1466.48339844	1.88235295
1466.48339844	1.07843137
1466.48742676	1.00000000
1466.49145508	1.01960790
1466.49572754	1.01960790
1466.49572754	1.01960790
1466.49975586	1.01960790
1466.50378418	0.92156863
1466.50793457	0.96078432
1466.50793457	1.11764705
1466.51208496	1.27450979
1466.51623535	1.49019611
1466.51623535	1.74509799
1466.52026367	2.05882359
1466.52441406	2.35294127
1466.52844238	2.54901958
1466.52844238	2.66666675
1466.53259277	2.78431368
1466.53662109	2.90196085
1466.54064941	3.00000000
1466.54064941	3.11764717
1466.54479980	3.21568632
1466.54882813	3.25490189
1466.55297852	3.29411769
1466.55297852	3.31372547
1466.55700684	3.37254906
1466.56127930	3.45098042
1466.56127930	3.52941179
1466.56530762	3.62745094
1466.56933594	3.70588231
1466.57348633	3.82352948
1466.57348633	4.07843161
1466.57751465	4.15686274
1466.58166504	4.15686274
1466.58569336	4.15686274
1466.58569336	4.07843161
1466.58984375	3.70588231
1466.59387207	3.25490189
1466.59802246	2.70588231
1466.60205078	2.64705873
1466.60632324	2.60784316
1466.60632324	2.49019599
1466.61022949	2.27450991
1466.61437988	2.01960778
1466.61853027	1.76470590
1466.61853027	1.66666663
1466.62268066	1.62745094
1466.62670898	1.64705884
1466.63073730	1.92156863
1466.63073730	2.35294127
1466.63488770	2.94117641
1466.63903809	3.47058821
1466.64306641	3.70588231
1466.64721680	3.52941179
1466.65124512	3.29411769
1466.65124512	2.98039222
1466.65539551	2.62745094
1466.65942383	2.54901958
1466.66369629	2.62745094
1466.66369629	2.72549009
1466.66760254	2.76470590
1466.67175293	2.88235283
1466.67578125	2.86274505
1466.67578125	2.82352948
1466.68005371	2.88235283
1466.68408203	2.96078420
1466.68823242	3.17647052
1466.69226074	3.33333325
1466.69641113	3.49019599
1466.69641113	3.58823538
1466.70031738	3.58823538
1466.70446777	3.62745094
1466.70861816	3.72549009
1466.70861816	3.80392146
1466.71276855	3.78431368
1466.71679688	3.76470590
1466.72082520	3.74509811
1466.72082520	3.76470590
1466.72509766	3.76470590
1466.72924805	3.68627453
1466.73327637	3.58823538
1466.73730469	3.50980401
1466.74133301	3.43137264
1466.74133301	3.39215684
1466.74560547	3.45098042
1466.74963379	3.49019599
1466.75366211	3.43137264
1466.75366211	3.23529410
1466.75769043	3.09803915
1466.76184082	3.05882359
1466.76599121	2.94117641
1466.76599121	2.78431368
1466.77001953	2.70588231
1466.77429199	2.66666675
1466.77819824	2.64705873
1466.78234863	2.72549009
1466.78649902	2.74509811
1466.78649902	2.76470590
1466.79052734	2.78431368
1466.79467773	2.80392146
1466.79882813	2.86274505
1466.79882813	2.94117641
1466.80285645	2.96078420
1466.80700684	2.90196085
1466.81103516	2.80392146
1466.81103516	2.70588231
1466.81518555	2.66666675
1466.81921387	2.60784316
1466.82336426	2.52941179
1466.82739258	2.49019599
1466.83142090	2.49019599
1466.83142090	2.49019599
1466.83569336	2.52941179
1466.83972168	2.60784316
1466.84387207	2.72549009
1466.84387207	2.82352948
1466.84790039	2.94117641
1466.85205078	3.03921580
1466.85620117	3.13725495
1466.85620117	3.21568632
1466.86022949	3.25490189
1466.86425781	3.33333325
1466.86840820	3.37254906
1466.87255859	3.33333325
1466.87658691	3.29411769
1466.87658691	3.19607854
1466.88061523	3.11764717
1466.88476563	3.01960778
1466.88891602	2.92156863
1466.88891602	2.82352948
1466.89294434	2.70588231
1466.89709473	2.58823538
1466.90124512	2.50980401
1466.90124512	2.45098042
1466.90527344	2.39215684
1466.90930176	2.35294127
1466.90930176	2.31372547
1466.91357422	2.25490189
1466.91760254	2.19607854
1466.92163086	2.11764717
1466.92163086	2.01960778
1466.92565918	1.92156863
1466.92993164	1.88235295
1466.93395996	1.88235295
1466.93395996	1.90196073
1466.93798828	1.92156863
1466.94213867	2.00000000
1466.94628906	2.01960778
1466.94628906	2.07843137
1466.95031738	2.11764717
1466.95434570	2.09803915
1466.95434570	2.01960778
1466.95849609	1.92156863
1466.96264648	1.90196073
1466.96679688	1.92156863
1466.96679688	2.01960778
1466.97070313	2.11764717
1466.97497559	2.19607854
1466.97912598	2.23529410
1466.97912598	2.27450991
1466.98315430	2.35294127
1466.98730469	2.43137264
1466.99121094	2.47058821
1466.99121094	2.47058821
1466.99548340	2.47058821
1466.99951172	2.45098042
1466.99951172	2.45098042
1467.00366211	2.50980401
1467.00756836	2.54901958
1467.01184082	2.66666675
1467.01184082	2.84313726
1467.01586914	3.05882359
1467.02001953	3.27450991
1467.02416992	3.49019599
1467.02416992	3.64705873
1467.02832031	3.70588231
1467.03234863	3.60784316
1467.03637695	3.31372547
1467.03637695	2.76470590
1467.04052734	1.82352936
1467.04455566	1.13725495
1467.04455566	1.15686274
1467.04858398	1.15686274
1467.05273438	1.17647064
1467.05688477	1.11764705
1467.05688477	1.11764705
1467.06091309	1.31372547
1467.06494141	1.58823526
1467.06909180	1.84313726
1467.06909180	2.09803915
1467.07324219	2.35294127
1467.07739258	2.62745094
1467.08142090	3.09803915
1467.08557129	3.29411769
1467.08972168	3.41176462
1467.08972168	3.49019599
1467.09375000	3.54901958
1467.09777832	3.56862736
1467.10192871	3.60784316
1467.10192871	3.56862736
1467.10607910	3.52941179
1467.11010742	3.49019599
1467.11425781	3.45098042
1467.11425781	3.43137264
1467.11828613	3.45098042
1467.12243652	3.47058821
1467.12646484	3.50980401
1467.13061523	3.49019599
1467.13464355	3.49019599
1467.13464355	3.50980401
1467.13879395	3.52941179
1467.14294434	3.52941179
1467.14709473	3.52941179
1467.14709473	3.50980401
1467.15100098	3.50980401
1467.15527344	3.47058821
1467.15930176	3.41176462
1467.15930176	3.37254906
1467.16333008	3.33333325
1467.16760254	3.29411769
1467.17150879	3.21568632
1467.17565918	3.17647052
1467.17968750	3.17647052
1467.17968750	3.15686274
1467.18395996	3.15686274
1467.18786621	3.21568632
1467.19201660	3.25490189
1467.19201660	3.27450991
1467.19616699	3.25490189
1467.20031738	3.25490189
1467.20446777	3.27450991
1467.20446777	3.25490189
1467.20837402	3.23529410
1467.21264648	3.23529410
1467.21667480	3.23529410
1467.22070313	3.23529410
1467.22485352	3.25490189
1467.22485352	3.27450991
1467.22900391	3.33333325
1467.23303223	3.37254906
1467.23718262	3.37254906
1467.23718262	3.37254906
1467.24121094	3.37254906
1467.24523926	3.35294127
1467.24938965	3.33333325
1467.24938965	3.35294127
1467.25354004	3.35294127
1467.25756836	3.35294127
1467.26171875	3.35294127
1467.26574707	3.33333325
1467.26989746	3.31372547
1467.26989746	3.27450991
1467.27404785	3.21568632
1467.27807617	3.13725495
1467.28234863	3.07843137
1467.28234863	3.01960778
1467.28625488	2.96078420
1467.29040527	2.92156863
1467.29455566	2.86274505
1467.29455566	2.76470590
1467.29846191	2.66666675
1467.30261230	2.58823538
1467.30676270	2.49019599
1467.31079102	2.41176462
1467.31481934	2.33333325
1467.31481934	2.27450991
1467.31896973	2.23529410
1467.32312012	2.21568632
1467.32727051	2.17647052
1467.32727051	2.15686274
1467.33129883	2.13725495
1467.33532715	2.11764717
1467.33947754	2.09803915
1467.33947754	2.09803915
1467.34362793	2.07843137
1467.34765625	2.07843137
1467.35168457	2.13725495
1467.35583496	2.15686274
1467.35998535	2.13725495
1467.35998535	2.15686274
1467.36413574	2.17647052
1467.36828613	2.19607854
1467.37219238	2.21568632
1467.37219238	2.19607854
1467.37634277	2.17647052
1467.38049316	2.19607854
1467.38464355	2.21568632
1467.38464355	2.23529410
1467.38867188	2.25490189
1467.39282227	2.25490189
1467.39282227	2.21568632
1467.39697266	2.19607854
1467.40100098	2.21568632
1467.40502930	2.17647052
1467.40502930	2.17647052
1467.40917969	2.15686274
1467.41333008	2.15686274
1467.41748047	2.13725495
1467.41748047	2.09803915
1467.42138672	2.09803915
1467.42565918	2.09803915
1467.42968750	2.07843137
1467.42968750	2.01960778
1467.43371582	2.00000000
1467.43786621	1.98039210
1467.43786621	1.98039210
1467.44189453	1.92156863
1467.44604492	1.92156863
1467.45007324	1.90196073
1467.45007324	1.90196073
1467.45422363	1.92156863
1467.45825195	1.96078432
1467.46240234	2.00000000
1467.46240234	2.00000000
1467.46655273	1.96078432
1467.47058105	1.96078432
1467.47473145	1.98039210
1467.47473145	2.01960778
1467.47888184	2.03921580
1467.48291016	2.05882359
1467.48291016	2.05882359
1467.48693848	2.09803915
1467.49108887	2.17647052
1467.49536133	2.21568632
1467.49536133	2.23529410
1467.49926758	2.31372547
1467.50329590	2.35294127
1467.50744629	2.39215684
1467.50744629	2.41176462
1467.51147461	2.45098042
1467.51562500	2.47058821
1467.51977539	2.47058821
1467.51977539	2.45098042
1467.52392578	2.43137264
1467.52795410	2.37254906
1467.52795410	2.37254906
1467.53198242	2.41176462
1467.53613281	2.47058821
1467.54028320	2.47058821
1467.54028320	2.45098042
1467.54443359	2.43137264
1467.54833984	2.41176462
1467.55249023	2.37254906
1467.55249023	2.39215684
1467.55664063	2.41176462
1467.56079102	2.52941179
1467.56469727	2.88235283
1467.56884766	3.07843137
1467.57299805	3.31372547
1467.57299805	3.47058821
1467.57714844	3.58823538
1467.58129883	3.56862736
1467.58520508	3.25490189
1467.58520508	2.80392146
1467.58935547	2.01960778
1467.59350586	1.07843137
1467.59765625	1.09803927
1467.59765625	1.09803927
1467.60168457	1.09803927
1467.60571289	1.09803927
1467.60986328	1.11764705
1467.61401367	1.09803927
1467.61816406	1.03921568
1467.61816406	1.11764705
1467.62219238	1.35294116
1467.62622070	1.62745094
1467.63037109	1.88235295
1467.63037109	2.19607854
1467.63452148	2.54901958
1467.63842773	2.80392146
1467.64257813	3.05882359
1467.64257813	3.27450991
1467.64672852	3.39215684
1467.65087891	3.45098042
1467.65490723	3.45098042
1467.65905762	3.50980401
1467.66333008	3.60784316
1467.66333008	3.62745094
1467.66723633	3.64705873
1467.67126465	3.66666675
1467.67541504	3.66666675
1467.67541504	3.60784316
1467.67956543	3.62745094
1467.68359375	3.62745094
1467.68762207	3.64705873
1467.68762207	3.66666675
1467.69165039	3.64705873
1467.69592285	3.64705873
1467.69995117	3.56862736
1467.70410156	3.50980401
1467.70825195	3.52941179
1467.70825195	3.50980401
1467.71228027	3.49019599
1467.71630859	3.47058821
1467.72058105	3.39215684
1467.72058105	3.35294127
1467.72473145	3.33333325
1467.72863770	3.29411769
1467.73278809	3.27450991
1467.73278809	3.31372547
1467.73681641	3.33333325
1467.74108887	3.41176462
1467.74499512	3.35294127
1467.74926758	3.25490189
1467.75317383	3.17647052
1467.75317383	3.15686274
1467.75732422	3.19607854
1467.76135254	3.27450991
1467.76550293	3.41176462
1467.76550293	3.50980401
1467.76965332	3.60784316
1467.77380371	3.70588231
1467.77783203	3.72549009
1467.77783203	3.76470590
1467.78186035	3.82352948
1467.78601074	3.88235283
1467.79016113	4.19607830
1467.79418945	4.19607830
1467.79833984	4.19607830
1467.79833984	4.19607830
1467.80236816	4.17647076
1467.80639648	4.15686274
1467.81066895	4.17647076
1467.81066895	4.09803915
1467.81469727	4.01960802
1467.81872559	3.88235283
1467.82287598	3.54901958
1467.82287598	3.17647052
1467.82702637	2.94117641
1467.83117676	2.80392146
1467.83520508	2.56862736
1467.83923340	2.43137264
1467.84338379	2.41176462
1467.84338379	2.35294127
1467.84753418	2.25490189
1467.85156250	2.13725495
1467.85559082	2.17647052
1467.85559082	2.15686274
1467.85974121	2.07843137
1467.86389160	2.13725495
1467.86791992	2.17647052
1467.86791992	2.07843137
1467.87194824	1.86274505
1467.87622070	1.80392158
1467.87622070	1.94117641
1467.88024902	2.01960778
1467.88439941	1.92156863
1467.88854980	1.78431368
1467.88854980	1.62745094
1467.89245605	1.58823526
1467.89660645	1.52941179
1467.90075684	1.52941179
1467.90075684	1.54901958
1467.90478516	1.54901958
1467.90893555	1.49019611
1467.91308594	1.49019611
1467.91308594	1.54901958
1467.91711426	1.49019611
1467.92126465	1.39215684
1467.92126465	1.31372547
1467.92529297	1.29411769
1467.92944336	1.29411769
1467.93347168	1.37254906
1467.93347168	1.47058821
1467.93762207	1.56862748
1467.94165039	1.66666663
1467.94580078	1.78431368
1467.94580078	1.80392158
1467.94982910	1.84313726
1467.95410156	1.92156863
1467.95812988	1.96078432
1467.95812988	2.00000000
1467.96228027	1.98039210
1467.96630859	1.98039210
1467.96630859	1.96078432
1467.97033691	2.01960778
1467.97460938	2.15686274
1467.97863770	2.17647052
1467.97863770	2.11764717
1467.98266602	2.09803915
1467.98681641	2.11764717
1467.99084473	2.15686274
1467.99084473	2.23529410
1467.99487305	2.31372547
1467.99902344	2.29411769
1468.00329590	2.31372547
1468.00329590	2.33333325
1468.00732422	2.39215684
1468.01135254	2.49019599
1468.01135254	2.39215684
1468.01538086	2.31372547
1468.01953125	2.29411769
1468.02368164	2.27450991
1468.02368164	2.23529410
1468.02770996	2.21568632
1468.03173828	2.23529410
1468.03588867	2.23529410
1468.03588867	2.27450991
1468.04003906	2.27450991
1468.04406738	2.23529410
1468.04821777	2.21568632
1468.05224609	2.31372547
1468.05639648	2.39215684
1468.05639648	2.43137264
1468.06054688	2.47058821
1468.06469727	2.49019599
1468.06872559	2.49019599
1468.06872559	2.49019599
1468.07275391	2.56862736
1468.07690430	2.60784316
1468.08093262	2.64705873
1468.08093262	2.68627453
1468.08496094	2.68627453
1468.08923340	2.72549009
1468.09313965	2.74509811
1468.09729004	2.72549009
1468.10144043	2.70588231
1468.10144043	2.66666675
1468.10546875	2.64705873
1468.10961914	2.78431368
1468.11364746	3.00000000
1468.11364746	3.15686274
1468.11779785	3.33333325
1468.12182617	3.52941179
1468.12585449	3.72549009
1468.12585449	3.86274505
1468.13012695	3.84313726
1468.13415527	3.60784316
1468.13830566	2.54901958
1468.14233398	1.39215684
1468.14648438	1.25490201
1468.14648438	1.25490201
1468.15063477	1.25490201
1468.15478516	1.27450979
1468.15881348	1.27450979
1468.15881348	1.27450979
1468.16284180	1.13725495
1468.16699219	1.23529410
1468.17114258	1.21568632
1468.17114258	1.39215684
1468.17529297	1.64705884
1468.17919922	1.92156863
1468.18334961	2.50980401
1468.18750000	2.74509811
1468.19165039	2.96078420
1468.19165039	3.11764717
1468.19567871	3.23529410
1468.19982910	3.33333325
1468.20385742	3.39215684
1468.20385742	3.43137264
1468.20800781	3.47058821
1468.21203613	3.50980401
1468.21630859	3.50980401
1468.21630859	3.56862736
1468.22033691	3.64705873
1468.22448730	3.70588231
1468.22851563	3.80392146
1468.23242188	4.07843161
1468.23657227	4.21568632
1468.23657227	4.21568632
1468.24084473	4.21568632
1468.24487305	4.21568632
1468.24902344	4.19607830
1468.24902344	4.19607830
1468.25292969	4.19607830
1468.25708008	4.23529434
1468.26123047	4.21568632
1468.26123047	4.21568632
1468.26525879	4.19607830
1468.26940918	4.17647076
1468.27343750	4.09803915
1468.27758789	3.94117641
1468.28173828	3.70588231
1468.28173828	3.45098042
1468.28576660	3.29411769
1468.28991699	3.17647052
1468.29394531	3.07843137
1468.29394531	3.05882359
1468.29821777	3.03921580
1468.30224609	3.07843137
1468.30627441	3.05882359
1468.30627441	3.05882359
1468.31042480	3.01960778
1468.31457520	3.01960778
1468.31872559	3.09803915
1468.32263184	3.11764717
1468.32690430	3.07843137
1468.32690430	3.03921580
1468.33093262	2.98039222
1468.33508301	2.94117641
1468.33923340	2.82352948
1468.33923340	2.72549009
1468.34338379	2.58823538
1468.34729004	2.54901958
1468.35144043	2.54901958
1468.35144043	2.54901958
1468.35534668	2.56862736
1468.35949707	2.58823538
1468.35949707	2.56862736
1468.36364746	2.50980401
1468.36779785	2.50980401
1468.37182617	2.49019599
1468.37182617	2.49019599
1468.37585449	2.52941179
1468.38000488	2.56862736
1468.38415527	2.52941179
1468.38415527	2.47058821
1468.38818359	2.39215684
1468.39221191	2.37254906
1468.39636230	2.37254906
1468.39636230	2.31372547
1468.40051270	2.25490189
1468.40466309	2.11764717
1468.40466309	2.01960778
1468.40881348	1.98039210
1468.41284180	1.92156863
1468.41687012	1.88235295
1468.41687012	1.86274505
1468.42102051	1.88235295
1468.42517090	1.86274505
1468.42919922	1.90196073
1468.42919922	1.90196073
1468.43310547	1.92156863
1468.43725586	1.92156863
1468.44152832	1.96078432
1468.44152832	2.00000000
1468.44555664	2.00000000
1468.44958496	2.01960778
1468.44958496	2.00000000
1468.45373535	2.00000000
1468.45788574	2.03921580
1468.46203613	2.05882359
1468.46203613	2.09803915
1468.46594238	2.09803915
1468.47021484	2.07843137
1468.47412109	2.05882359
1468.47412109	2.03921580
1468.47839355	2.03921580
1468.48229980	2.05882359
1468.48645020	2.03921580
1468.48645020	2.07843137
1468.49060059	2.11764717
1468.49475098	2.13725495
1468.49475098	2.21568632
1468.49890137	2.27450991
1468.50280762	2.27450991
1468.50695801	2.25490189
1468.50695801	2.25490189
1468.51110840	2.27450991
1468.51525879	2.29411769
1468.51940918	2.27450991
1468.51940918	2.31372547
1468.52331543	2.31372547
1468.52746582	2.29411769
1468.53161621	2.29411769
1468.53564453	2.35294127
1468.53979492	2.41176462
1468.53979492	2.45098042
1468.54382324	2.43137264
1468.54797363	2.47058821
1468.55212402	2.49019599
1468.55212402	2.49019599
1468.55615234	2.49019599
1468.56018066	2.49019599
1468.56433105	2.50980401
1468.56433105	2.50980401
1468.56848145	2.47058821
1468.57250977	2.45098042
1468.57666016	2.37254906
1468.58068848	2.37254906
1468.58483887	2.39215684
1468.58483887	2.41176462
1468.58898926	2.41176462
1468.59301758	2.43137264
1468.59729004	2.45098042
1468.59729004	2.43137264
1468.60131836	2.41176462
1468.60534668	2.41176462
1468.60949707	2.39215684
1468.60949707	2.35294127
1468.61352539	2.35294127
1468.61755371	2.39215684
1468.62170410	2.43137264
1468.62573242	2.39215684
1468.62988281	2.35294127
1468.62988281	2.39215684
1468.63403320	2.43137264
1468.63806152	2.47058821
1468.64221191	2.50980401
1468.64221191	2.45098042
1468.64624023	2.45098042
1468.65039063	2.39215684
1468.65441895	2.39215684
1468.65441895	2.41176462
1468.65856934	2.47058821
1468.66271973	2.52941179
1468.66674805	2.78431368
1468.67077637	2.92156863
1468.67492676	3.13725495
1468.67492676	3.33333325
1468.67895508	3.56862736
1468.68322754	3.64705873
1468.68725586	3.45098042
1468.68725586	3.05882359
1468.69140625	2.60784316
1468.69543457	1.62745094
1468.69946289	1.41176474
1468.69946289	1.43137252
1468.70361328	1.43137252
1468.70776367	1.43137252
1468.71191406	2.13725495
1468.71594238	2.94117641
1468.71997070	2.98039222
1468.71997070	2.74509811
1468.72412109	2.39215684
1468.72827148	2.58823538
1468.73242188	3.05882359
1468.73242188	3.50980401
1468.73632813	4.23529434
1468.74047852	4.25490189
1468.74462891	4.23529434
1468.74462891	4.07843161
1468.74877930	3.58823538
1468.75280762	3.17647052
1468.75683594	2.50980401
1468.76098633	2.25490189
1468.76513672	1.96078432
1468.76513672	1.56862748
1468.76928711	1.54901958
1468.77331543	1.70588231
1468.77734375	1.88235295
1468.77734375	2.03921580
1468.78161621	2.25490189
1468.78564453	2.39215684
1468.78967285	2.50980401
1468.78967285	2.64705873
1468.79370117	2.84313726
1468.79785156	2.86274505
1468.80200195	2.86274505
1468.80603027	2.92156863
1468.81030273	3.01960778
1468.81030273	2.96078420
1468.81420898	2.98039222
1468.81835938	3.00000000
1468.82250977	3.03921580
1468.82250977	3.09803915
1468.82653809	3.13725495
1468.83068848	3.11764717
1468.83483887	3.07843137
1468.83483887	2.96078420
1468.83886719	2.88235283
1468.84301758	2.84313726
1468.84301758	2.84313726
1468.84704590	2.92156863
1468.85119629	3.03921580
1468.85522461	3.09803915
1468.85522461	3.17647052
1468.85925293	3.31372547
1468.86340332	3.33333325
1468.86755371	3.25490189
1468.86755371	3.17647052
1468.87158203	3.21568632
1468.87573242	3.37254906
1468.87976074	3.76470590
1468.87976074	4.21568632
1468.88391113	4.27450991
1468.88806152	4.27450991
1468.88806152	4.27450991
1468.89221191	4.25490189
1468.89636230	4.27450991
1468.90026855	4.17647076
1468.90026855	4.25490189
1468.90441895	4.27450991
1468.90856934	4.27450991
1468.91271973	4.27450991
1468.91271973	4.15686274
1468.91662598	4.23529434
1468.92077637	4.27450991
1468.92480469	4.21568632
1468.92480469	4.13725471
1468.92907715	3.98039222
1468.93310547	3.72549009
1468.93310547	3.39215684
1468.93725586	3.11764717
1468.94116211	2.82352948
1468.94531250	2.60784316
1468.94531250	2.41176462
1468.94934082	2.25490189
1468.95349121	2.09803915
1468.95764160	1.96078432
1468.95764160	1.84313726
1468.96179199	1.76470590
1468.96582031	1.68627453
1468.96984863	1.66666663
1468.96984863	1.66666663
1468.97399902	1.68627453
1468.97814941	1.72549021
1468.97814941	1.82352936
1468.98217773	1.88235295
1468.98620605	1.92156863
1468.99035645	1.96078432
1468.99035645	2.00000000
1468.99450684	1.98039210
1468.99853516	1.98039210
1469.00268555	2.00000000
1469.00268555	2.03921580
1469.00671387	2.07843137
1469.01086426	2.05882359
1469.01501465	1.88235295
1469.01904297	1.88235295
1469.02319336	1.86274505
1469.02319336	1.88235295
1469.02722168	1.92156863
1469.03137207	1.94117641
1469.03552246	1.98039210
1469.03552246	2.05882359
1469.03955078	2.17647052
1469.04370117	2.27450991
1469.04772949	2.45098042
1469.04772949	2.62745094
1469.05187988	2.82352948
1469.05615234	2.96078420
1469.06005859	3.03921580
1469.06420898	3.01960778
1469.06823730	3.00000000
1469.06823730	3.01960778
1469.07226563	3.03921580
1469.07629395	3.03921580
1469.08044434	3.03921580
1469.08044434	3.05882359
1469.08459473	3.05882359
1469.08874512	3.05882359
1469.09277344	3.03921580
1469.09277344	3.00000000
1469.09692383	2.94117641
1469.10107422	2.90196085
1469.10510254	2.90196085
1469.10925293	2.88235283
1469.11340332	2.84313726
1469.11340332	2.82352948
1469.11743164	2.80392146
1469.12145996	2.74509811
1469.12548828	2.76470590
1469.12548828	2.74509811
1469.12963867	2.68627453
1469.13366699	2.56862736
1469.13781738	2.45098042
1469.13781738	2.33333325
1469.14196777	2.17647052
1469.14611816	2.05882359
1469.15026855	1.54901958
1469.15417480	1.64705884
1469.15844727	1.64705884
1469.15844727	1.64705884
1469.16247559	1.64705884
1469.16650391	1.54901958
1469.17065430	1.56862748
1469.17065430	1.62745094
1469.17468262	1.70588231
1469.17883301	1.76470590
1469.18298340	1.76470590
1469.18298340	1.74509799
1469.18688965	1.70588231
1469.19116211	1.72549021
1469.19531250	1.90196073
1469.19934082	2.05882359
1469.20349121	2.23529410
1469.20349121	2.29411769
1469.20751953	2.31372547
1469.21154785	2.31372547
1469.21569824	2.25490189
1469.21569824	2.19607854
1469.21984863	2.19607854
1469.22387695	2.23529410
1469.22802734	2.33333325
1469.22802734	2.50980401
1469.23217773	2.74509811
1469.23620605	2.98039222
1469.24023438	3.41176462
1469.24426270	3.72549009
1469.24841309	3.52941179
1469.24841309	3.07843137
1469.25256348	2.39215684
1469.25659180	1.56862748
1469.26074219	1.56862748
1469.26074219	1.58823526
1469.26477051	1.58823526
1469.26892090	1.58823526
1469.27307129	1.60784316
1469.27307129	1.60784316
1469.27722168	1.58823526
1469.28125000	1.64705884
1469.28125000	1.90196073
1469.28540039	2.31372547
1469.28955078	2.60784316
1469.29357910	2.82352948
1469.29357910	3.05882359
1469.29760742	3.27450991
1469.30175781	3.43137264
1469.30578613	3.88235283
1469.30578613	4.25490189
1469.30981445	4.25490189
1469.31396484	4.33333349
1469.31823730	4.33333349
1469.31823730	4.35294104
1469.32226563	4.35294104
1469.32629395	4.37254906
1469.32629395	4.33333349
1469.33032227	4.33333349
1469.33447266	4.33333349
1469.33862305	4.33333349
1469.33862305	4.35294104
1469.34265137	4.31372547
1469.34680176	4.31372547
1469.35095215	4.31372547
1469.35095215	4.31372547
1469.35498047	4.31372547
1469.35913086	4.31372547
1469.36315918	4.31372547
1469.36315918	4.29411745
1469.36718750	4.31372547
1469.37121582	4.29411745
1469.37121582	4.27450991
1469.37548828	4.29411745
1469.37963867	4.29411745
1469.38378906	4.27450991
1469.38378906	4.27450991
1469.38769531	4.27450991
1469.39184570	4.27450991
1469.39599609	4.27450991
1469.39599609	4.27450991
1469.39990234	4.27450991
1469.40417480	4.27450991
1469.40820313	4.27450991
1469.40820313	4.27450991
1469.41235352	4.27450991
1469.41638184	4.25490189
1469.41638184	4.23529434
1469.42041016	4.23529434
1469.42456055	4.23529434
1469.42871094	4.23529434
1469.42871094	4.25490189
1469.43286133	4.23529434
1469.43688965	4.25490189
1469.44091797	4.27450991
1469.44091797	4.27450991
1469.44506836	4.27450991
1469.44921875	4.27450991
1469.45336914	4.27450991
1469.45336914	4.27450991
1469.45739746	4.27450991
1469.46142578	4.27450991
1469.46142578	4.29411745
1469.46569824	4.29411745
1469.46972656	4.29411745
1469.47387695	4.27450991
1469.47387695	4.27450991
1469.47790527	4.27450991
1469.48193359	4.27450991
1469.48608398	4.29411745
1469.48608398	4.27450991
1469.49023438	4.27450991
1469.49426270	4.27450991
1469.49829102	4.29411745
1469.50244141	4.27450991
1469.50659180	4.27450991
1469.50659180	4.27450991
1469.51062012	4.27450991
1469.51477051	4.27450991
1469.51892090	4.25490189
1469.51892090	4.25490189
1469.52307129	4.23529434
1469.52697754	4.23529434
1469.53125000	4.21568632
1469.53125000	4.21568632
1469.53527832	4.19607830
1469.53942871	4.19607830
1469.54345703	4.19607830
1469.54748535	4.19607830
1469.55163574	4.17647076
1469.55163574	4.15686274
1469.55578613	4.13725471
1469.55981445	4.11764717
1469.56396484	4.05882359
1469.56396484	3.47058821
1469.56799316	2.82352948
1469.57202148	2.82352948
1469.57629395	2.82352948
1469.57629395	2.82352948
1469.58032227	2.84313726
1469.58435059	2.82352948
1469.58850098	2.82352948
1469.59265137	2.80392146
1469.59680176	2.82352948
1469.59680176	2.82352948
1469.60083008	2.82352948
1469.60485840	2.82352948
1469.60888672	2.80392146
1469.60888672	2.80392146
1469.61303711	2.80392146
1469.61730957	2.82352948
1469.62121582	2.80392146
1469.62121582	2.78431368
1469.62536621	2.80392146
1469.62951660	2.80392146
1469.63366699	2.80392146
1469.63757324	2.80392146
1469.64172363	2.80392146
1469.64172363	2.80392146
1469.64599609	2.80392146
1469.65002441	2.80392146
1469.65405273	2.78431368
1469.65405273	2.80392146
1469.65808105	2.80392146
1469.66235352	2.82352948
1469.66638184	2.80392146
1469.66638184	2.82352948
1469.67041016	2.82352948
1469.67443848	2.80392146
1469.67858887	2.82352948
1469.68273926	2.82352948
1469.68688965	2.82352948
1469.68688965	2.82352948
1469.69079590	2.82352948
1469.69494629	2.80392146
1469.69909668	2.82352948
1469.69909668	2.82352948
1469.70324707	2.82352948
1469.70715332	2.82352948
1469.71130371	2.82352948
1469.71130371	2.82352948
1469.71545410	2.82352948
1469.71960449	2.82352948
1469.72363281	2.82352948
1469.72778320	2.80392146
1469.73181152	2.82352948
1469.73181152	2.82352948
1469.73596191	2.82352948
1469.74011230	2.80392146
1469.74426270	2.80392146
1469.74426270	2.78431368
1469.74816895	2.86274505
1469.75244141	2.80392146
1469.75646973	2.80392146
1469.75646973	2.80392146
1469.76049805	2.80392146
1469.76464844	2.82352948
1469.76879883	2.82352948
1469.77294922	3.00000000
1469.77697754	3.21568632
1469.77697754	3.52941179
1469.78100586	4.15686274
1469.78515625	4.27450991
1469.78930664	4.27450991
1469.78930664	4.27450991
1469.79333496	4.25490189
1469.79736328	4.19607830
1469.80151367	4.07843161
1469.80151367	2.84313726
1469.80554199	2.84313726
1469.80969238	2.84313726
1469.80969238	2.84313726
1469.81359863	2.84313726
1469.81787109	2.84313726
1469.82202148	2.84313726
1469.82202148	2.84313726
1469.82604980	2.84313726
1469.83020020	2.82352948
1469.83422852	2.82352948
1469.83422852	2.80392146
1469.83837891	2.82352948
1469.84240723	2.82352948
1469.84667969	2.80392146
1469.84667969	2.92156863
1469.85058594	3.17647052
1469.85473633	3.47058821
1469.85473633	3.66666675
1469.85888672	3.86274505
1469.86303711	4.21568632
1469.86718750	4.23529434
1469.86718750	4.23529434
1469.87121582	4.25490189
1469.87512207	4.25490189
1469.87927246	4.25490189
1469.87927246	4.27450991
1469.88342285	4.29411745
1469.88745117	4.29411745
1469.89160156	4.29411745
1469.89160156	4.29411745
1469.89575195	4.31372547
1469.89990234	4.31372547
1469.89990234	4.29411745
1469.90380859	4.29411745
1469.90795898	4.29411745
1469.91223145	4.23529434
1469.91223145	4.21568632
1469.91625977	4.23529434
1469.92041016	4.25490189
1469.92431641	4.25490189
1469.92431641	4.25490189
1469.92846680	4.27450991
1469.93261719	4.27450991
1469.93664551	4.27450991
1469.93664551	4.27450991
1469.94067383	4.27450991
1469.94482422	4.25490189
1469.94482422	4.27450991
1469.94897461	4.27450991
1469.95312500	4.27450991
1469.95727539	4.27450991
1469.95727539	4.27450991
1469.96118164	4.27450991
1469.96533203	4.25490189
1469.96948242	4.25490189
1469.96948242	4.25490189
1469.97363281	4.25490189
1469.97766113	4.27450991
1469.98168945	4.29411745
1469.98583984	4.29411745
1469.98999023	3.23529410
1469.98999023	3.15686274
1469.99401855	3.07843137
1469.99816895	3.01960778
1470.00219727	2.94117641
1470.00219727	2.96078420
1470.00634766	3.94117641
1470.01049805	2.98039222
1470.01440430	2.88235283
1470.01440430	2.92156863
1470.01855469	3.01960778
1470.02270508	2.96078420
1470.02685547	2.66666675
1470.03088379	2.50980401
1470.03491211	2.47058821
1470.03491211	2.49019599
1470.03918457	2.58823538
1470.04321289	2.68627453
1470.04736328	2.76470590
1470.04736328	2.68627453
1470.05139160	2.60784316
1470.05541992	2.50980401
1470.05957031	2.39215684
1470.05957031	2.37254906
1470.06372070	2.39215684
1470.06774902	2.37254906
1470.07177734	2.31372547
1470.07592773	2.27450991
1470.08007813	2.31372547
1470.08007813	2.23529410
1470.08422852	2.19607854
1470.08813477	2.19607854
1470.09228516	2.29411769
1470.09228516	2.35294127
1470.09655762	2.41176462
1470.10058594	2.56862736
1470.10461426	2.70588231
1470.10461426	2.84313726
1470.10876465	2.96078420
1470.11279297	3.01960778
1470.11694336	2.98039222
1470.12084961	2.88235283
1470.12512207	2.66666675
1470.12512207	2.49019599
1470.12927246	2.35294127
1470.13330078	2.33333325
1470.13745117	2.35294127
1470.13745117	2.41176462
1470.14147949	2.68627453
1470.14562988	2.94117641
1470.14965820	3.49019599
1470.14965820	4.31372547
1470.15380859	4.31372547
1470.15783691	4.27450991
1470.16198730	4.21568632
1470.16601563	4.29411745
1470.17016602	4.21568632
1470.17016602	4.23529434
1470.17407227	4.15686274
1470.17834473	3.72549009
1470.18249512	3.45098042
1470.18249512	2.94117641
1470.18664551	2.64705873
1470.19067383	2.39215684
1470.19470215	2.23529410
1470.19470215	2.11764717
1470.19885254	2.09803915
1470.20300293	2.09803915
1470.20715332	2.03921580
1470.21118164	2.03921580
1470.21520996	2.07843137
1470.21520996	2.07843137
1470.21936035	2.07843137
1470.22351074	2.15686274
1470.22766113	2.23529410
1470.22766113	2.29411769
1470.23156738	2.29411769
1470.23571777	2.29411769
1470.23986816	2.29411769
1470.23986816	2.41176462
1470.24401855	2.52941179
1470.24804688	2.58823538
1470.24804688	2.58823538
1470.25219727	2.50980401
1470.25622559	2.54901958
1470.26037598	2.60784316
1470.26037598	2.68627453
1470.26440430	2.76470590
1470.26855469	2.76470590
1470.27258301	2.74509811
1470.27258301	2.72549009
1470.27673340	2.68627453
1470.28088379	2.62745094
1470.28503418	2.62745094
1470.28503418	2.70588231
1470.28906250	2.74509811
1470.29309082	2.80392146
1470.29309082	2.82352948
1470.29724121	2.94117641
1470.30114746	3.05882359
1470.30541992	3.39215684
1470.30541992	3.82352948
1470.30944824	4.33333349
1470.31359863	4.47058821
1470.31774902	4.33333349
1470.31774902	4.29411745
1470.32177734	4.31372547
1470.32592773	4.31372547
1470.33007813	4.31372547
1470.33007813	4.31372547
1470.33410645	4.31372547
1470.33825684	4.33333349
1470.33825684	4.33333349
1470.34240723	4.33333349
1470.34631348	4.31372547
1470.35058594	4.29411745
1470.35058594	4.27450991
1470.35449219	4.15686274
1470.35852051	2.92156863
1470.36279297	2.84313726
1470.36279297	2.84313726
1470.36682129	2.84313726
1470.37084961	2.82352948
1470.37500000	2.82352948
1470.37500000	2.86274505
1470.37927246	3.03921580
1470.38330078	3.31372547
1470.38330078	3.66666675
1470.38745117	4.27450991
1470.39135742	4.31372547
1470.39550781	4.31372547
1470.39550781	4.33333349
1470.39965820	4.33333349
1470.40380859	4.31372547
1470.40783691	4.33333349
1470.40783691	4.33333349
1470.41198730	4.33333349
1470.41601563	4.33333349
1470.42004395	4.33333349
1470.42419434	4.33333349
1470.42822266	4.33333349
1470.42822266	4.33333349
1470.43237305	4.33333349
1470.43640137	4.31372547
1470.44067383	4.31372547
1470.44067383	4.31372547
1470.44470215	4.31372547
1470.44873047	4.31372547
1470.45288086	4.33333349
1470.45288086	4.31372547
1470.45690918	4.31372547
1470.46105957	4.31372547
1470.46520996	4.31372547
1470.46923828	4.31372547
1470.47338867	4.29411745
1470.47338867	4.31372547
1470.47753906	4.31372547
1470.48144531	4.31372547
1470.48559570	4.31372547
1470.48559570	4.31372547
1470.48974609	4.31372547
1470.49389648	4.31372547
1470.49792480	4.31372547
1470.49792480	4.31372547
1470.50195313	4.31372547
1470.50610352	4.33333349
1470.51025391	4.31372547
1470.51440430	4.31372547
1470.51831055	4.31372547
1470.51831055	4.33333349
1470.52246094	4.31372547
1470.52648926	4.31372547
1470.53063965	4.31372547
1470.53063965	4.31372547
1470.53466797	4.31372547
1470.53881836	4.31372547
1470.54296875	4.31372547
1470.54296875	4.31372547
1470.54711914	4.31372547
1470.55126953	4.31372547
1470.55517578	4.31372547
1470.55932617	4.31372547
1470.56347656	4.31372547
1470.56347656	4.29411745
1470.56762695	4.29411745
1470.57153320	4.29411745
1470.57568359	4.29411745
1470.57568359	4.31372547
1470.57983398	4.29411745
1470.58398438	4.29411745
1470.58813477	4.29411745
1470.58813477	4.29411745
1470.59228516	4.29411745
1470.59631348	4.29411745
1470.60046387	4.29411745
1470.60449219	4.29411745
1470.60839844	4.27450991
1470.60839844	4.27450991
1470.61254883	4.25490189
1470.61669922	4.27450991
1470.62084961	4.27450991
1470.62084961	4.25490189
1470.62475586	4.25490189
1470.62890625	4.25490189
1470.63317871	4.25490189
1470.63317871	4.23529434
1470.63720703	4.23529434
1470.64135742	4.23529434
1470.64526367	4.17647076
1470.64941406	4.19607830
1470.65356445	4.15686274
1470.65356445	4.19607830
1470.65771484	4.19607830
1470.66186523	4.19607830
1470.66589355	4.19607830
1470.66589355	4.17647076
1470.66992188	4.21568632
1470.67407227	4.23529434
1470.67822266	4.23529434
1470.67822266	4.23529434
1470.68225098	4.21568632
1470.68627930	4.23529434
1470.69042969	4.23529434
1470.69458008	4.23529434
1470.69860840	4.23529434
1470.69860840	4.23529434
1470.70263672	4.23529434
1470.70678711	4.23529434
1470.71093750	4.23529434
1470.71093750	4.23529434
1470.71496582	4.23529434
1470.71923828	4.27450991
1470.72326660	4.25490189
1470.72326660	4.23529434
1470.72741699	4.23529434
1470.73144531	4.27450991
1470.73144531	4.27450991
1470.73547363	4.27450991
1470.73962402	4.27450991
1470.74365234	4.27450991
1470.74365234	4.25490189
1470.74780273	4.27450991
1470.75183105	4.25490189
1470.75598145	4.25490189
1470.75598145	4.25490189
1470.76013184	4.23529434
1470.76416016	4.23529434
1470.76831055	4.23529434
1470.76831055	4.23529434
1470.77233887	4.25490189
1470.77636719	4.25490189
1470.77636719	4.25490189
1470.78063965	4.25490189
1470.78479004	4.23529434
1470.78869629	4.23529434
1470.78869629	4.25490189
1470.79284668	4.25490189
1470.79699707	4.23529434
1470.80102539	4.23529434
1470.80102539	4.25490189
1470.80517578	4.25490189
1470.80908203	4.25490189
1470.81335449	4.25490189
1470.81335449	4.25490189
1470.81750488	4.23529434
1470.82165527	4.23529434
1470.82165527	4.21568632
1470.82556152	4.21568632
1470.82971191	4.21568632
1470.83386230	4.21568632
1470.83386230	4.23529434
1470.83801270	4.23529434
1470.84191895	4.23529434
1470.84619141	4.23529434
1470.84619141	4.23529434
1470.85021973	4.25490189
1470.85437012	4.25490189
1470.85839844	4.23529434
1470.85839844	4.25490189
1470.86242676	4.23529434
1470.86657715	4.21568632
1470.86657715	4.21568632
1470.87060547	4.23529434
1470.87463379	4.19607830
1470.87890625	4.25490189
1470.87890625	4.23529434
1470.88293457	4.23529434
1470.88708496	4.23529434
1470.89123535	4.25490189
1470.89123535	4.27450991
1470.89514160	4.27450991
1470.89929199	4.27450991
1470.90344238	4.29411745
1470.90344238	4.29411745
1470.90759277	4.31372547
1470.91174316	4.31372547
1470.91174316	4.29411745
1470.91577148	4.31372547
1470.91979980	4.29411745
1470.92382813	3.82352948
1470.92382813	2.86274505
1470.92810059	2.86274505
1470.93212891	2.88235283
1470.93615723	2.88235283
1470.93615723	2.86274505
1470.94030762	2.86274505
1470.94445801	2.84313726
1470.94860840	2.84313726
1470.95263672	2.84313726
1470.95666504	2.88235283
1470.95666504	3.03921580
1470.96081543	3.47058821
1470.96496582	4.19607830
1470.96887207	4.27450991
1470.96887207	4.29411745
1470.97302246	4.27450991
1470.97717285	4.25490189
1470.98132324	4.25490189
1470.98132324	4.27450991
1470.98522949	4.27450991
1470.98937988	4.27450991
1470.99353027	4.27450991
1470.99768066	4.27450991
1471.00183105	4.25490189
1471.00183105	4.23529434
1471.00585938	4.23529434
1471.00988770	4.25490189
1471.01403809	4.25490189
1471.01403809	4.23529434
1471.01831055	4.25490189
1471.02221680	4.25490189
1471.02636719	4.25490189
1471.02636719	4.23529434
1471.03051758	4.19607830
1471.03466797	4.21568632
1471.03869629	4.25490189
1471.04272461	4.23529434
1471.04687500	4.23529434
1471.04687500	4.21568632
1471.05102539	4.25490189
1471.05505371	4.25490189
1471.05920410	4.25490189
1471.05920410	4.25490189
1471.06311035	4.23529434
1471.06726074	4.19607830
1471.07141113	4.19607830
1471.07141113	4.19607830
1471.07543945	4.21568632
1471.07958984	4.25490189
1471.08374023	4.23529434
1471.08776855	4.19607830
1471.09191895	4.19607830
1471.09191895	4.21568632
1471.09606934	4.23529434
1471.10009766	4.25490189
1471.10424805	4.25490189
1471.10424805	4.25490189
1471.10827637	4.25490189
1471.11230469	4.23529434
1471.11645508	4.25490189
1471.11645508	4.25490189
1471.12060547	4.23529434
1471.12475586	4.25490189
1471.12878418	4.25490189
1471.13281250	4.25490189
1471.13696289	4.23529434
1471.13696289	4.25490189
1471.14111328	4.25490189
1471.14526367	4.21568632
1471.14929199	4.21568632
1471.14929199	4.21568632
1471.15344238	4.25490189
1471.15747070	4.25490189
1471.16162109	4.25490189
1471.16162109	4.23529434
1471.16564941	4.23529434
1471.16967773	4.23529434
1471.17382813	4.21568632
1471.17797852	4.21568632
1471.18200684	4.21568632
1471.18200684	4.19607830
1471.18615723	4.19607830
1471.19018555	4.21568632
1471.19433594	4.21568632
1471.19433594	4.19607830
1471.19848633	4.21568632
1471.20239258	4.19607830
1471.20654297	4.19607830
1471.20654297	4.21568632
1471.21069336	4.19607830
1471.21484375	4.19607830
1471.21484375	4.19607830
1471.21887207	4.21568632
1471.22302246	4.19607830
1471.22717285	4.21568632
1471.22717285	4.21568632
1471.23120117	4.21568632
1471.23522949	4.21568632
1471.23937988	4.21568632
1471.23937988	4.21568632
1471.24353027	4.23529434
1471.24755859	4.23529434
1471.25170898	4.23529434
1471.25170898	4.25490189
1471.25573730	4.23529434
1471.26000977	4.23529434
1471.26000977	4.23529434
1471.26403809	4.23529434
1471.26818848	4.25490189
1471.27221680	4.25490189
1471.27221680	4.25490189
1471.27624512	4.25490189
1471.28039551	4.23529434
1471.28442383	4.25490189
1471.28442383	4.25490189
1471.28857422	4.25490189
1471.29260254	4.25490189
1471.29675293	4.23529434
1471.29675293	4.23529434
1471.30078125	4.25490189
1471.30493164	4.25490189
1471.30493164	4.25490189
1471.30883789	4.25490189
1471.31323242	4.25490189
1471.31726074	4.25490189
1471.31726074	4.25490189
1471.32128906	4.25490189
1471.32531738	4.25490189
1471.32946777	4.27450991
1471.32946777	4.25490189
1471.33361816	4.25490189
1471.33764648	4.25490189
1471.34179688	4.25490189
1471.34179688	4.27450991
1471.34582520	4.25490189
1471.34985352	4.25490189
1471.34985352	4.27450991
1471.35400391	4.27450991
1471.35815430	4.27450991
1471.36230469	4.27450991
1471.36230469	4.27450991
1471.36633301	4.29411745
1471.37048340	4.29411745
1471.37451172	4.29411745
1471.37451172	4.29411745
1471.37866211	4.29411745
1471.38269043	4.29411745
1471.38684082	4.29411745
1471.39099121	4.27450991
1471.39501953	4.25490189
1471.39501953	4.25490189
1471.39916992	4.25490189
1471.40319824	4.25490189
1471.40734863	4.25490189
1471.40734863	4.25490189
1471.41149902	4.25490189
1471.41552734	4.25490189
1471.41955566	4.25490189
1471.41955566	4.25490189
1471.42358398	4.25490189
1471.42773438	4.25490189
1471.43188477	4.25490189
1471.43591309	4.25490189
1471.44018555	4.25490189
1471.44018555	4.25490189
1471.44421387	4.25490189
1471.44836426	4.27450991
1471.45251465	4.29411745
1471.45251465	4.29411745
1471.45642090	4.27450991
1471.46057129	4.27450991
1471.46472168	4.27450991
1471.46472168	4.25490189
1471.46887207	4.23529434
1471.47290039	4.21568632
1471.47705078	4.19607830
1471.48095703	4.19607830
1471.48510742	4.21568632
1471.48510742	4.25490189
1471.48913574	4.27450991
1471.49340820	4.27450991
1471.49743652	4.29411745
1471.49743652	4.29411745
1471.50158691	4.29411745
1471.50561523	4.23529434
1471.50964355	4.17647076
1471.50964355	3.86274505
1471.51379395	2.86274505
1471.51794434	2.86274505
1471.52209473	2.86274505
1471.52624512	2.86274505
1471.53015137	2.86274505
1471.53015137	2.86274505
1471.53430176	2.86274505
1471.53833008	2.86274505
1471.54248047	2.84313726
1471.54248047	2.82352948
1471.54650879	2.82352948
1471.55065918	2.94117641
1471.55480957	3.15686274
1471.55480957	3.43137264
1471.55895996	3.78431368
1471.56298828	4.27450991
1471.56713867	4.27450991
1471.57116699	4.27450991
1471.57543945	4.25490189
1471.57543945	4.25490189
1471.57934570	4.27450991
1471.58349609	4.25490189
1471.58764648	4.27450991
1471.58764648	4.27450991
1471.59167480	4.25490189
1471.59594727	4.27450991
1471.59985352	4.27450991
1471.59985352	4.27450991
1471.60400391	4.27450991
1471.60803223	4.25490189
1471.61230469	4.25490189
1471.61621094	4.25490189
1471.62036133	4.25490189
1471.62036133	4.25490189
1471.62438965	4.25490189
1471.62866211	4.25490189
1471.63281250	4.25490189
1471.63281250	4.25490189
1471.63684082	4.25490189
1471.64086914	4.25490189
1471.64501953	4.25490189
1471.64501953	4.25490189
1471.64916992	4.23529434
1471.65319824	4.25490189
1471.65722656	4.25490189
1471.66137695	4.25490189
1471.66552734	4.25490189
1471.66552734	4.25490189
1471.66943359	4.25490189
1471.67358398	4.25490189
1471.67773438	4.25490189
1471.67773438	4.25490189
1471.68176270	4.25490189
1471.68579102	4.25490189
1471.68994141	4.27450991
1471.68994141	4.27450991
1471.69409180	4.27450991
1471.69812012	4.27450991
1471.69812012	4.27450991
1471.70239258	4.27450991
1471.70629883	4.27450991
1471.71044922	4.27450991
1471.71044922	4.27450991
1471.71447754	4.27450991
1471.71862793	4.27450991
1471.72277832	4.27450991
1471.72277832	4.27450991
1471.72680664	4.27450991
1471.73083496	4.27450991
1471.73498535	4.27450991
1471.73498535	4.25490189
1471.73913574	4.25490189
1471.74316406	4.25490189
1471.74316406	4.25490189
1471.74731445	4.25490189
1471.75146484	4.25490189
1471.75561523	4.23529434
1471.75561523	4.25490189
1471.75952148	4.23529434
1471.76367188	4.23529434
1471.76782227	4.21568632
1471.76782227	4.21568632
1471.77197266	4.19607830
1471.77612305	4.19607830
1471.78015137	4.19607830
1471.78015137	4.17647076
1471.78417969	4.19607830
1471.78820801	4.17647076
1471.78820801	4.17647076
1471.79235840	4.19607830
1471.79638672	4.17647076
1471.80053711	4.19607830
1471.80053711	4.19607830
1471.80468750	4.19607830
1471.80883789	4.17647076
1471.81298828	4.19607830
1471.81298828	4.19607830
1471.81689453	4.15686274
1471.82104492	4.17647076
1471.82519531	4.19607830
1471.82519531	4.17647076
1471.82922363	4.17647076
1471.83337402	4.19607830
1471.83337402	4.17647076
1471.83740234	4.15686274
1471.84155273	4.15686274
1471.84570313	4.15686274
1471.84570313	4.17647076
1471.84973145	4.15686274
1471.85375977	4.15686274
1471.85791016	4.15686274
1471.85791016	4.17647076
1471.86206055	4.15686274
1471.86621094	4.17647076
1471.87023926	4.17647076
1471.87426758	4.15686274
1471.87841797	4.17647076
1471.87841797	4.17647076
1471.88256836	4.17647076
1471.88659668	4.17647076
1471.89062500	4.17647076
1471.89062500	4.17647076
1471.89477539	4.17647076
1471.89892578	4.13725471
1471.90307617	4.17647076
1471.90307617	4.17647076
1471.90722656	4.17647076
1471.91125488	4.19607830
1471.91528320	4.19607830
1471.91943359	4.19607830
1471.92346191	4.19607830
1471.92346191	4.21568632
1471.92761230	4.19607830
1471.93164063	4.21568632
1471.93579102	4.19607830
1471.93579102	4.17647076
1471.93981934	4.19607830
1471.94396973	4.19607830
1471.94812012	4.21568632
1471.94812012	4.19607830
1471.95214844	4.21568632
1471.95629883	4.17647076
1471.96032715	4.19607830
1471.96447754	4.19607830
1471.96862793	4.17647076
1471.96862793	4.17647076
1471.97277832	4.17647076
1471.97668457	4.17647076
1471.98083496	4.17647076
1471.98083496	4.19607830
1471.98498535	4.19607830
1471.98913574	4.17647076
1471.99316406	4.19607830
1471.99316406	4.17647076
1471.99719238	4.17647076
1472.00134277	4.19607830
1472.00537109	4.17647076
1472.00939941	4.15686274
1472.01354980	4.15686274
1472.01354980	4.17647076
1472.01770020	4.15686274
1472.02185059	4.17647076
1472.02587891	4.19607830
1472.02587891	4.17647076
1472.03002930	4.11764717
1472.03430176	4.09803915
1472.03820801	3.98039222
1472.03820801	3.35294127
1472.04235840	2.86274505
1472.04638672	2.84313726
1472.05041504	2.84313726
1472.05444336	2.84313726
1472.05859375	2.84313726
1472.05859375	2.86274505
1472.06286621	2.86274505
1472.06677246	2.86274505
1472.07092285	2.84313726
1472.07092285	2.84313726
1472.07507324	2.84313726
1472.07922363	2.84313726
1472.08337402	2.84313726
1472.08337402	2.84313726
1472.08728027	2.80392146
1472.09143066	2.88235283
1472.09558105	3.05882359
1472.09960938	2.86274505
1472.10375977	2.86274505
1472.10375977	2.86274505
1472.10778809	2.86274505
1472.11193848	2.86274505
1472.11596680	2.86274505
1472.11596680	2.86274505
1472.12011719	2.86274505
1472.12414551	2.86274505
1472.12829590	2.86274505
1472.12829590	2.86274505
1472.13244629	2.86274505
1472.13659668	2.86274505
1472.14050293	2.86274505
1472.14465332	2.84313726
1472.14880371	2.84313726
1472.14880371	2.84313726
1472.15295410	2.84313726
1472.15698242	2.84313726
1472.16125488	2.86274505
1472.16125488	2.84313726
1472.16528320	2.86274505
1472.16931152	2.84313726
1472.17333984	2.86274505
1472.17333984	2.86274505
1472.17736816	2.84313726
1472.18151855	2.84313726
1472.18151855	2.84313726
1472.18566895	2.84313726
1472.18969727	2.86274505
1472.19384766	2.86274505
1472.19384766	2.84313726
1472.19787598	2.86274505
1472.20202637	2.84313726
1472.20617676	2.84313726
1472.20617676	2.82352948
1472.21020508	2.84313726
1472.21435547	2.84313726
1472.21838379	2.86274505
1472.21838379	2.86274505
1472.22253418	2.86274505
1472.22656250	2.86274505
1472.22656250	2.86274505
1472.23071289	2.86274505
1472.23474121	2.84313726
1472.23889160	2.84313726
1472.23889160	2.84313726
1472.24291992	2.86274505
1472.24719238	2.86274505
1472.25109863	2.86274505
1472.25109863	2.86274505
1472.25537109	2.86274505
1472.25939941	2.86274505
1472.26354980	2.86274505
1472.26354980	2.86274505
1472.26757813	2.86274505
1472.27172852	2.86274505
1472.27172852	2.84313726
1472.27587891	2.84313726
1472.28002930	2.82352948
1472.28393555	2.84313726
1472.28393555	2.82352948
1472.28808594	2.84313726
1472.29223633	2.86274505
1472.29626465	3.01960778
1472.29626465	3.13725495
1472.30029297	3.17647052
1472.30444336	3.15686274
1472.30859375	3.11764717
1472.30859375	2.94117641
1472.31274414	2.88235283
1472.31689453	2.88235283
1472.31689453	2.86274505
1472.32080078	2.84313726
1472.32495117	2.82352948
1472.32910156	2.82352948
1472.32910156	2.84313726
1472.33325195	2.82352948
1472.33728027	2.86274505
1472.34130859	2.84313726
1472.34130859	2.86274505
1472.34545898	2.86274505
1472.34960938	2.86274505
1472.35363770	2.86274505
1472.35766602	2.86274505
1472.36181641	2.86274505
1472.36181641	2.86274505
1472.36596680	2.86274505
1472.36999512	2.86274505
1472.37414551	2.86274505
1472.37414551	2.86274505
1472.37829590	2.86274505
1472.38232422	2.86274505
1472.38647461	2.86274505
1472.38647461	2.86274505
1472.39050293	2.86274505
1472.39453125	2.86274505
1472.39868164	2.86274505
1472.40295410	2.86274505
1472.40698242	2.86274505
1472.40698242	2.86274505
1472.41101074	2.86274505
1472.41503906	2.86274505
1472.41918945	2.86274505
1472.41918945	2.86274505
1472.42333984	2.84313726
1472.42736816	2.86274505
1472.43139648	2.86274505
1472.43139648	2.86274505
1472.43554688	2.86274505
1472.43969727	2.86274505
1472.44372559	2.86274505
1472.44787598	2.86274505
1472.45190430	2.84313726
1472.45190430	2.84313726
1472.45605469	2.84313726
1472.46020508	2.84313726
1472.46423340	2.84313726
1472.46423340	2.84313726
1472.46826172	2.84313726
1472.47241211	2.82352948
1472.47656250	3.07843137
1472.47656250	4.01960802
1472.48059082	4.25490189
1472.48461914	4.17647076
1472.48876953	2.86274505
1472.49291992	2.86274505
1472.49707031	2.86274505
1472.49707031	2.86274505
1472.50109863	2.86274505
1472.50512695	2.86274505
1472.50927734	2.86274505
1472.50927734	2.86274505
1472.51342773	2.86274505
1472.51745605	2.86274505
1472.52148438	2.86274505
1472.52148438	2.86274505
1472.52563477	2.86274505
1472.52978516	2.86274505
1472.53381348	2.86274505
1472.53796387	2.86274505
1472.54211426	2.86274505
1472.54211426	2.86274505
1472.54614258	2.86274505
1472.55017090	2.84313726
1472.55432129	2.86274505
1472.55432129	2.84313726
1472.55847168	2.86274505
1472.56250000	2.86274505
1472.56665039	2.84313726
1472.56665039	2.86274505
1472.57067871	2.84313726
1472.57482910	2.86274505
1472.57897949	2.86274505
1472.58300781	2.86274505
1472.58715820	2.84313726
1472.58715820	2.86274505
1472.59130859	2.84313726
1472.59533691	2.84313726
1472.59948730	2.84313726
1472.59948730	2.84313726
1472.60351563	2.84313726
1472.60754395	2.84313726
1472.61169434	2.82352948
1472.61169434	2.82352948
1472.61584473	2.82352948
1472.61987305	2.84313726
1472.62390137	2.84313726
1472.62817383	2.82352948
1472.63220215	2.82352948
1472.63220215	2.82352948
1472.63635254	2.82352948
1472.64025879	2.84313726
1472.64440918	2.84313726
1472.64440918	2.84313726
1472.64855957	2.84313726
1472.65270996	2.84313726
1472.65686035	2.84313726
1472.65686035	2.84313726
1472.66088867	2.84313726
1472.66491699	2.82352948
1472.66491699	2.84313726
1472.66906738	3.03921580
1472.67321777	3.23529410
1472.67736816	3.56862736
1472.67736816	3.84313726
1472.68127441	4.25490189
1472.68542480	4.21568632
1472.68957520	4.13725471
1472.68957520	3.60784316
1472.69360352	2.86274505
1472.69763184	2.86274505
1472.70178223	2.86274505
1472.70178223	2.86274505
1472.70593262	2.86274505
1472.71008301	2.86274505
1472.71008301	2.86274505
1472.71423340	2.84313726
1472.71826172	2.86274505
1472.72241211	2.84313726
1472.72241211	2.82352948
1472.72644043	2.82352948
1472.73046875	2.80392146
1472.73449707	2.84313726
1472.73449707	3.01960778
1472.73876953	3.21568632
1472.74267578	3.45098042
1472.74694824	3.56862736
1472.74694824	3.78431368
1472.75085449	4.25490189
1472.75512695	4.25490189
1472.75512695	4.25490189
1472.75915527	4.25490189
1472.76330566	4.25490189
1472.76745605	4.23529434
1472.76745605	4.25490189
1472.77148438	4.25490189
1472.77551270	4.25490189
1472.77978516	4.25490189
1472.77978516	4.25490189
1472.78369141	4.25490189
1472.78784180	4.25490189
1472.79199219	4.23529434
1472.79199219	4.21568632
1472.79602051	4.21568632
1472.80017090	4.21568632
1472.80017090	4.23529434
1472.80419922	4.23529434
1472.80834961	4.25490189
1472.81250000	4.25490189
1472.81250000	4.25490189
1472.81652832	4.25490189
1472.82055664	4.25490189
1472.82470703	4.25490189
1472.82470703	4.25490189
1472.82885742	4.25490189
1472.83300781	4.25490189
1472.83715820	4.25490189
1472.84118652	4.25490189
1472.84521484	4.25490189
1472.84521484	4.25490189
1472.84936523	4.25490189
1472.85339355	4.25490189
1472.85754395	4.25490189
1472.85754395	4.25490189
1472.86157227	4.25490189
1472.86560059	4.25490189
1472.86975098	4.25490189
1472.86975098	4.25490189
1472.87377930	4.25490189
1472.87792969	4.25490189
1472.88220215	4.27450991
1472.88610840	4.27450991
1472.89025879	4.25490189
1472.89025879	4.25490189
1472.89428711	4.25490189
1472.89843750	4.25490189
1472.90258789	4.25490189
1472.90258789	4.27450991
1472.90661621	4.27450991
1472.91064453	4.25490189
1472.91467285	4.25490189
1472.91467285	4.25490189
1472.91894531	4.25490189
1472.92297363	4.25490189
1472.92712402	4.27450991
1472.93115234	4.25490189
1472.93530273	4.25490189
1472.93530273	4.25490189
1472.93945313	4.25490189
1472.94348145	4.25490189
1472.94763184	4.25490189
1472.94763184	4.23529434
1472.95166016	4.23529434
1472.95581055	4.23529434
1472.95996094	4.23529434
1472.95996094	4.23529434
1472.96411133	4.21568632
1472.96826172	4.21568632
1472.97216797	4.21568632
1472.97631836	4.21568632
1472.98046875	4.21568632
1472.98046875	4.19607830
1472.98437500	4.19607830
1472.98852539	4.19607830
1472.99267578	4.21568632
1472.99267578	4.23529434
1472.99682617	4.25490189
1473.00073242	4.25490189
1473.00500488	4.25490189
1473.00500488	4.25490189
1473.00903320	4.25490189
1473.01318359	4.25490189
1473.01733398	4.27450991
1473.02124023	4.25490189
1473.02539063	4.27450991
1473.02539063	4.27450991
1473.02954102	4.27450991
1473.03369141	4.25490189
1473.03771973	4.27450991
1473.03771973	4.25490189
1473.04187012	4.25490189
1473.04589844	4.25490189
1473.05004883	4.27450991
1473.05004883	4.27450991
1473.05419922	4.27450991
1473.05822754	4.25490189
1473.06237793	4.25490189
1473.06652832	4.25490189
1473.07067871	4.25490189
1473.07067871	4.25490189
1473.07458496	4.27450991
1473.07873535	4.27450991
1473.08288574	4.25490189
1473.08288574	4.25490189
1473.08703613	4.25490189
1473.09094238	4.25490189
1473.09521484	4.27450991
1473.09521484	4.25490189
1473.09924316	4.25490189
1473.10327148	4.25490189
1473.10742188	4.25490189
1473.11145020	4.25490189
1473.11560059	4.25490189
1473.11560059	4.23529434
1473.11962891	4.15686274
1473.12377930	4.17647076
1473.12792969	4.25490189
1473.12792969	4.27450991
1473.13195801	4.27450991
1473.13610840	4.27450991
1473.14013672	4.29411745
1473.14013672	4.29411745
1473.14416504	4.31372547
1473.14831543	4.39215708
1473.14831543	4.39215708
1473.15246582	4.35294104
1473.15649414	4.31372547
1473.16064453	4.27450991
1473.16064453	4.25490189
1473.16467285	4.25490189
1473.16882324	4.25490189
1473.17297363	4.29411745
1473.17297363	4.29411745
1473.17712402	4.25490189
1473.18115234	4.25490189
1473.18518066	4.23529434
1473.18518066	4.21568632
1473.18933105	4.21568632
1473.19348145	4.23529434
1473.19348145	4.23529434
1473.19750977	4.23529434
1473.20153809	4.25490189
1473.20568848	4.23529434
1473.20568848	4.25490189
1473.20983887	4.25490189
1473.21398926	4.27450991
1473.21813965	4.27450991
1473.21813965	4.25490189
1473.22216797	4.25490189
1473.22619629	4.25490189
1473.23034668	4.27450991
1473.23034668	4.29411745
1473.23425293	4.29411745
1473.23840332	4.29411745
1473.23840332	4.31372547
1473.24255371	4.29411745
1473.24670410	4.31372547
1473.25073242	4.33333349
1473.25073242	4.31372547
1473.25476074	4.29411745
1473.25891113	4.29411745
1473.26306152	4.27450991
1473.26306152	4.21568632
1473.26721191	4.11764717
1473.27111816	2.86274505
1473.27526855	2.86274505
1473.27526855	2.86274505
1473.27954102	2.86274505
1473.28356934	2.86274505
1473.28356934	2.86274505
1473.28759766	2.86274505
1473.29162598	2.86274505
1473.29577637	2.86274505
1473.29577637	2.86274505
1473.29992676	2.84313726
1473.30407715	2.90196085
1473.30822754	3.27450991
1473.30822754	4.13725471
1473.31213379	4.27450991
1473.31628418	4.29411745
1473.32043457	3.25490189
1473.32446289	3.17647052
1473.32861328	3.01960778
1473.32861328	3.01960778
1473.33264160	3.01960778
1473.33679199	2.98039222
1473.34094238	3.01960778
1473.34094238	3.15686274
1473.34497070	3.25490189
1473.34924316	3.31372547
1473.35314941	3.37254906
1473.35314941	3.47058821
1473.35729980	3.52941179
1473.36132813	3.56862736
1473.36547852	3.45098042
1473.36950684	3.54901958
1473.37353516	3.64705873
1473.37353516	3.66666675
1473.37768555	3.68627453
1473.38171387	3.66666675
1473.38586426	3.64705873
1473.38586426	3.64705873
1473.39001465	3.66666675
1473.39416504	3.72549009
1473.39819336	3.72549009
1473.39819336	3.64705873
1473.40234375	3.62745094
1473.40649414	3.62745094
1473.41064453	3.58823538
1473.41455078	3.60784316
1473.41870117	3.64705873
1473.41870117	3.68627453
1473.42285156	3.66666675
1473.42700195	3.70588231
1473.43103027	3.74509811
1473.43103027	3.80392146
1473.43505859	3.84313726
1473.43908691	3.84313726
1473.44323730	3.84313726
1473.44323730	3.86274505
1473.44738770	3.86274505
1473.45153809	3.86274505
1473.45556641	3.86274505
1473.45959473	3.84313726
1473.46374512	4.37254906
1473.46374512	4.37254906
1473.46789551	4.35294104
1473.47192383	4.37254906
1473.47619629	4.35294104
1473.47619629	4.35294104
1473.48022461	4.35294104
1473.48425293	4.35294104
1473.48840332	4.35294104
1473.48840332	4.33333349
1473.49230957	4.33333349
1473.49645996	4.33333349
1473.50061035	4.33333349
1473.50463867	4.31372547
1473.50878906	4.31372547
1473.50878906	4.31372547
1473.51293945	4.31372547
1473.51708984	4.29411745
1473.52124023	4.29411745
1473.52124023	4.29411745
1473.52514648	4.27450991
1473.52929688	4.29411745
1473.53344727	4.29411745
1473.53344727	4.29411745
1473.53759766	4.29411745
1473.54150391	3.23529410
1473.54565430	3.52941179
1473.54992676	3.60784316
1473.55395508	3.62745094
1473.55395508	3.66666675
1473.55786133	4.31372547
1473.56213379	4.29411745
1473.56616211	4.29411745
1473.56616211	4.29411745
1473.57031250	4.29411745
1473.57446289	4.29411745
1473.57849121	3.35294127
1473.57849121	3.49019599
1473.58264160	3.58823538
1473.58666992	3.66666675
1473.59082031	4.29411745
1473.59484863	4.29411745
1473.59899902	4.29411745
1473.59899902	3.41176462
1473.60302734	4.31372547
1473.60717773	4.29411745
1473.61132813	4.29411745
1473.61132813	4.29411745
1473.61523438	4.29411745
1473.61938477	3.23529410
1473.62353516	4.29411745
1473.62353516	4.31372547
1473.62768555	4.31372547
1473.63183594	4.31372547
1473.63183594	4.31372547
1473.63574219	4.31372547
1473.63989258	4.31372547
1473.64404297	4.27450991
1473.64404297	4.27450991
1473.64819336	4.23529434
1473.65209961	4.23529434
1473.65625000	4.25490189
1473.65625000	4.25490189
1473.66040039	4.25490189
1473.66455078	4.25490189
1473.66845703	4.25490189
1473.66845703	4.25490189
1473.67260742	4.27450991
1473.67675781	4.27450991
1473.67675781	4.27450991
1473.68090820	4.27450991
1473.68493652	4.27450991
1473.68920898	4.27450991
1473.68920898	4.27450991
1473.69323730	4.27450991
1473.69726563	4.27450991
1473.70141602	4.27450991
1473.70141602	4.27450991
1473.70544434	4.25490189
1473.70947266	4.25490189
1473.71362305	4.25490189
1473.71362305	4.25490189
1473.71777344	4.25490189
1473.72192383	4.25490189
1473.72192383	4.25490189
1473.72583008	4.25490189
1473.72998047	4.25490189
1473.73413086	4.23529434
1473.73413086	4.27450991
1473.73815918	4.23529434
1473.74230957	4.25490189
1473.74645996	4.25490189
1473.74645996	4.25490189
1473.75061035	4.25490189
1473.75463867	4.27450991
1473.75866699	4.27450991
1473.75866699	4.25490189
1473.76281738	4.25490189
1473.76696777	4.17647076
1473.76696777	4.05882359
1473.77111816	3.47058821
1473.77514648	3.27450991
1473.77917480	3.50980401
1473.77917480	4.25490189
1473.78332520	4.27450991
1473.78735352	4.23529434
1473.79150391	4.21568632
1473.79150391	4.25490189
1473.79553223	4.25490189
1473.79956055	4.25490189
1473.80371094	4.25490189
1473.80798340	4.25490189
1473.81213379	4.27450991
1473.81213379	4.29411745
1473.81616211	4.31372547
1473.82019043	4.31372547
1473.82434082	4.31372547
1473.82434082	4.33333349
1473.82849121	4.29411745
1473.83239746	4.27450991
1473.83654785	4.23529434
1473.83654785	3.82352948
1473.84069824	2.82352948
1473.84472656	2.82352948
1473.84875488	2.82352948
1473.85290527	2.82352948
1473.85705566	2.82352948
1473.85705566	2.82352948
1473.86108398	2.82352948
1473.86511230	2.82352948
1473.86926270	2.80392146
1473.86926270	2.78431368
1473.87341309	2.78431368
1473.87756348	2.78431368
1473.88171387	2.82352948
1473.88171387	2.80392146
1473.88562012	2.80392146
1473.88977051	2.84313726
1473.89392090	2.80392146
1473.89807129	2.82352948
1473.90222168	2.82352948
1473.90222168	3.00000000
1473.90612793	3.13725495
1473.91027832	3.15686274
1473.91430664	3.19607854
1473.91430664	3.25490189
1473.91845703	3.45098042
1473.92248535	3.80392146
1473.92663574	4.25490189
1473.92663574	4.25490189
1473.93078613	4.25490189
1473.93493652	4.27450991
1473.93896484	4.29411745
1473.94311523	4.29411745
1473.94714355	4.29411745
1473.94714355	4.29411745
1473.95129395	4.29411745
1473.95532227	4.29411745
1473.95935059	4.29411745
1473.95935059	4.29411745
1473.96350098	4.29411745
1473.96765137	4.29411745
1473.97192383	4.31372547
1473.97192383	4.31372547
1473.97583008	4.31372547
1473.97985840	4.31372547
1473.98400879	4.29411745
1473.98815918	4.31372547
1473.99218750	4.31372547
1473.99218750	4.29411745
1473.99633789	4.29411745
1474.00036621	4.29411745
1474.00451660	4.29411745
1474.00451660	4.29411745
1474.00854492	4.29411745
1474.01269531	4.29411745
1474.01672363	4.29411745
1474.01672363	4.29411745
1474.02087402	4.29411745
1474.02502441	4.29411745
1474.02917480	4.29411745
1474.03308105	4.29411745
1474.03723145	4.29411745
1474.03723145	4.29411745
1474.04138184	4.29411745
1474.04541016	4.29411745
1474.04956055	4.29411745
1474.04956055	4.29411745
1474.05371094	4.29411745
1474.05773926	4.29411745
1474.06188965	4.27450991
1474.06188965	4.27450991
1474.06591797	4.27450991
1474.07019043	4.27450991
1474.07421875	4.27450991
1474.07824707	4.25490189
1474.08251953	4.23529434
1474.08251953	4.23529434
1474.08630371	4.23529434
1474.09057617	4.23529434
1474.09472656	4.21568632
1474.09472656	4.21568632
1474.09875488	4.21568632
1474.10278320	4.21568632
1474.10693359	4.19607830
1474.10693359	4.21568632
1474.11108398	4.21568632
1474.11523438	4.19607830
1474.11523438	4.19607830
1474.11914063	4.19607830
1474.12316895	4.17647076
1474.12744141	4.17647076
1474.12744141	4.17647076
1474.13159180	4.15686274
1474.13549805	4.13725471
1474.13964844	4.13725471
1474.13964844	4.17647076
1474.14379883	4.15686274
1474.14794922	4.15686274
1474.15197754	4.17647076
1474.15197754	4.17647076
1474.15625000	4.15686274
1474.16027832	4.19607830
1474.16027832	4.17647076
1474.16430664	4.15686274
1474.16845703	4.17647076
1474.17248535	4.17647076
1474.17248535	4.15686274
1474.17663574	4.13725471
1474.18054199	4.13725471
1474.18469238	4.17647076
1474.18469238	4.15686274
1474.18872070	4.17647076
1474.19287109	4.17647076
1474.19714355	4.15686274
1474.19714355	4.17647076
1474.20117188	4.17647076
1474.20532227	4.17647076
1474.20532227	4.17647076
1474.20922852	4.19607830
1474.21337891	4.19607830
1474.21765137	4.21568632
1474.21765137	4.19607830
1474.22167969	4.21568632
1474.22570801	4.21568632
1474.22973633	4.21568632
1474.22973633	4.19607830
1474.23388672	4.19607830
1474.23803711	4.19607830
1474.24218750	4.19607830
1474.24218750	4.17647076
1474.24621582	4.19607830
1474.25024414	4.19607830
1474.25024414	4.19607830
1474.25439453	4.19607830
1474.25854492	4.17647076
1474.26257324	4.15686274
1474.26257324	4.13725471
1474.26672363	4.09803915
1474.27087402	4.01960802
1474.27502441	3.25490189
1474.27502441	2.82352948
1474.27893066	2.82352948
1474.28320313	2.82352948
1474.28723145	2.82352948
1474.29125977	2.82352948
1474.29541016	2.84313726
1474.29541016	2.82352948
1474.29943848	2.80392146
1474.30346680	2.82352948
1474.30761719	2.80392146
1474.30761719	2.80392146
1474.31176758	2.80392146
1474.31579590	2.84313726
1474.31982422	2.82352948
1474.31982422	2.82352948
1474.32409668	2.80392146
1474.32812500	2.84313726
1474.33227539	3.05882359
1474.33630371	2.94117641
1474.34045410	2.88235283
1474.34045410	2.94117641
1474.34460449	3.07843137
1474.34875488	3.49019599
1474.35266113	4.23529434
1474.35266113	4.25490189
1474.35668945	4.21568632
1474.36096191	4.21568632
1474.36511230	4.23529434
1474.36511230	4.25490189
1474.36914063	4.27450991
1474.37316895	4.29411745
1474.37731934	4.31372547
1474.38134766	4.31372547
1474.38562012	4.31372547
1474.38562012	4.27450991
1474.38952637	4.21568632
1474.39367676	4.17647076
1474.39782715	3.23529410
1474.39782715	2.86274505
1474.40197754	2.84313726
1474.40600586	2.86274505
1474.41027832	2.84313726
1474.41027832	2.84313726
1474.41418457	2.84313726
1474.41833496	2.84313726
1474.42236328	2.84313726
1474.42639160	2.80392146
1474.43054199	2.82352948
1474.43054199	2.84313726
1474.43457031	3.01960778
1474.43872070	3.39215684
1474.44287109	3.88235283
1474.44287109	4.23529434
1474.44702148	4.25490189
1474.45104980	4.27450991
1474.45520020	4.27450991
1474.45520020	4.27450991
1474.45922852	4.27450991
1474.46337891	4.29411745
1474.46740723	4.29411745
1474.47155762	4.29411745
1474.47583008	4.31372547
1474.47583008	4.27450991
1474.47961426	4.25490189
1474.48376465	4.21568632
1474.48791504	4.27450991
1474.48791504	4.29411745
1474.49194336	4.29411745
1474.49621582	4.29411745
1474.50012207	4.29411745
1474.50012207	4.29411745
1474.50427246	4.27450991
1474.50842285	4.27450991
1474.51257324	4.29411745
1474.51647949	4.29411745
1474.52062988	4.31372547
1474.52062988	4.31372547
1474.52478027	4.31372547
1474.52893066	4.31372547
1474.53295898	4.33333349
1474.53295898	4.31372547
1474.53710938	4.31372547
1474.54113770	4.29411745
1474.54528809	4.27450991
1474.54528809	4.27450991
1474.54919434	4.27450991
1474.55334473	4.29411745
1474.55334473	4.27450991
1474.55749512	4.27450991
1474.56164551	4.27450991
1474.56579590	4.27450991
1474.56579590	4.27450991
1474.56982422	4.27450991
1474.57397461	4.29411745
1474.57800293	4.29411745
1474.57800293	4.29411745
1474.58215332	4.29411745
1474.58618164	4.29411745
1474.59033203	4.29411745
1474.59033203	4.27450991
1474.59448242	4.29411745
1474.59863281	4.29411745
1474.59863281	4.29411745
1474.60253906	4.29411745
1474.60668945	4.29411745
1474.61083984	4.27450991
1474.61083984	4.29411745
1474.61486816	4.27450991
1474.61901855	4.27450991
1474.62316895	4.29411745
1474.62316895	4.27450991
1474.62707520	4.29411745
1474.63134766	4.29411745
1474.63537598	4.27450991
1474.63537598	4.27450991
1474.63940430	4.27450991
1474.64355469	4.27450991
1474.64355469	4.27450991
1474.64770508	4.27450991
1474.65185547	4.27450991
1474.65588379	4.27450991
1474.65588379	4.27450991
1474.65991211	4.27450991
1474.66406250	4.27450991
1474.66809082	4.27450991
1474.66809082	4.27450991
1474.67236328	4.25490189
1474.67626953	4.25490189
1474.68029785	4.25490189
1474.68029785	4.25490189
1474.68444824	4.27450991
1474.68872070	4.27450991
1474.68872070	4.27450991
1474.69262695	4.25490189
1474.69677734	4.23529434
1474.70092773	4.23529434
1474.70092773	4.21568632
1474.70507813	4.21568632
1474.70910645	4.21568632
1474.71313477	4.21568632
1474.71313477	4.23529434
1474.71728516	4.23529434
1474.72143555	4.23529434
1474.72558594	4.21568632
1474.72558594	4.21568632
1474.72949219	4.21568632
1474.73364258	4.21568632
1474.73364258	4.23529434
1474.73779297	4.23529434
1474.74194336	4.21568632
1474.74597168	4.21568632
1474.74597168	4.23529434
1474.75012207	4.23529434
1474.75415039	4.23529434
1474.75830078	4.23529434
1474.75830078	4.23529434
1474.76245117	4.23529434
1474.76635742	4.23529434
1474.77050781	4.27450991
1474.77465820	4.29411745
1474.77880859	4.29411745
1474.77880859	4.29411745
1474.78283691	4.27450991
1474.78698730	4.29411745
1474.79113770	4.29411745
1474.79113770	4.29411745
1474.79516602	4.29411745
1474.79931641	4.29411745
1474.80322266	4.29411745
1474.80322266	4.27450991
1474.80737305	4.27450991
1474.81152344	4.29411745
1474.81567383	4.27450991
1474.81970215	4.25490189
1474.82373047	4.27450991
1474.82373047	4.27450991
1474.82788086	4.27450991
1474.83203125	4.27450991
1474.83618164	4.27450991
1474.83618164	4.25490189
1474.84020996	4.25490189
1474.84436035	4.25490189
1474.84851074	4.23529434
1474.84851074	4.25490189
1474.85253906	4.25490189
1474.85656738	4.25490189
1474.86059570	4.25490189
1474.86474609	4.25490189
1474.86889648	4.23529434
1474.86889648	4.23529434
1474.87292480	4.25490189
1474.87719727	4.25490189
1474.88110352	4.25490189
1474.88110352	4.25490189
1474.88525391	4.23529434
1474.88928223	4.25490189
1474.89343262	4.27450991
1474.89343262	4.27450991
1474.89758301	4.25490189
1474.90161133	4.23529434
1474.90588379	4.25490189
1474.90979004	4.25490189
1474.91394043	4.25490189
1474.91394043	4.27450991
1474.91796875	4.25490189
1474.92211914	4.25490189
1474.92626953	4.27450991
1474.92626953	4.27450991
1474.93029785	4.29411745
1474.93444824	4.29411745
1474.93847656	4.29411745
1474.93847656	4.31372547
1474.94262695	4.31372547
1474.94665527	4.31372547
1474.95080566	4.23529434
1474.95495605	4.15686274
1474.95898438	3.33333325
1474.95898438	2.84313726
1474.96313477	2.84313726
1474.96704102	2.84313726
1474.97119141	2.84313726
1474.97119141	2.84313726
1474.97534180	2.84313726
1474.97949219	2.84313726
1474.98352051	2.82352948
1474.98352051	2.82352948
1474.98767090	2.82352948
1474.99182129	2.82352948
1474.99597168	3.45098042
1474.99987793	4.11764717
1475.00415039	4.29411745
1475.00415039	4.29411745
1475.00817871	4.29411745
1475.01220703	4.29411745
1475.01647949	4.29411745
1475.01647949	4.27450991
1475.02050781	4.29411745
1475.02453613	4.29411745
1475.02868652	4.29411745
1475.02868652	4.29411745
1475.03283691	4.29411745
1475.03698730	4.29411745
1475.03698730	4.27450991
1475.04089355	4.27450991
1475.04504395	4.27450991
1475.04919434	4.27450991
1475.04919434	4.27450991
1475.05322266	4.27450991
1475.05725098	4.27450991
1475.06140137	4.25490189
1475.06140137	4.23529434
1475.06555176	4.23529434
1475.06970215	4.27450991
1475.07373047	4.27450991
1475.07373047	4.27450991
1475.07775879	4.27450991
1475.08190918	4.27450991
1475.08190918	4.25490189
1475.08605957	4.25490189
1475.09020996	4.27450991
1475.09411621	4.27450991
1475.09411621	4.29411745
1475.09838867	4.29411745
1475.10241699	4.27450991
1475.10656738	4.27450991
1475.10656738	4.27450991
1475.11059570	4.27450991
1475.11462402	4.27450991
1475.11877441	4.27450991
1475.11877441	4.27450991
1475.12292480	4.27450991
1475.12695313	4.27450991
1475.12695313	4.27450991
1475.13122559	4.27450991
1475.13525391	4.27450991
1475.13940430	4.27450991
1475.13940430	4.25490189
1475.14331055	4.23529434
1475.14746094	4.13725471
1475.15161133	4.23529434
1475.15161133	4.27450991
1475.15563965	4.27450991
1475.15979004	4.29411745
1475.16381836	4.27450991
1475.16381836	4.29411745
1475.16784668	4.31372547
1475.17199707	4.31372547
1475.17199707	4.33333349
1475.17614746	4.35294104
1475.18017578	4.39215708
1475.18432617	4.41176462
1475.18432617	4.37254906
1475.18835449	4.33333349
1475.19250488	4.25490189
1475.19665527	4.17647076
1475.19665527	4.19607830
1475.20068359	4.23529434
1475.20483398	4.27450991
1475.20886230	4.21568632
1475.21301270	4.17647076
1475.21716309	4.19607830
1475.21716309	4.19607830
1475.22119141	4.21568632
1475.22534180	4.27450991
1475.22937012	4.29411745
1475.22937012	4.29411745
1475.23339844	4.29411745
1475.23754883	4.27450991
1475.24169922	4.27450991
1475.24169922	4.29411745
1475.24584961	4.27450991
1475.24987793	4.27450991
1475.25390625	4.27450991
1475.25805664	4.29411745
1475.26220703	4.27450991
1475.26220703	4.27450991
1475.26635742	4.27450991
1475.27026367	4.23529434
1475.27441406	4.23529434
1475.27441406	4.21568632
1475.27856445	4.25490189
1475.28271484	4.25490189
1475.28686523	4.25490189
1475.28686523	4.21568632
1475.29077148	4.21568632
1475.29492188	4.19607830
1475.29907227	4.21568632
1475.30310059	4.21568632
1475.30712891	4.21568632
1475.30712891	4.21568632
1475.31127930	4.23529434
1475.31542969	4.25490189
1475.31958008	4.27450991
1475.31958008	4.27450991
1475.32348633	4.27450991
1475.32763672	4.27450991
1475.33178711	4.27450991
1475.33178711	4.27450991
1475.33593750	4.27450991
1475.33996582	4.27450991
1475.34423828	4.27450991
1475.34814453	4.29411745
1475.35229492	4.29411745
1475.35229492	4.27450991
1475.35644531	4.27450991
1475.36047363	4.25490189
1475.36450195	4.25490189
1475.36450195	4.25490189
1475.36865234	4.25490189
1475.37268066	4.21568632
1475.37695313	4.21568632
1475.37695313	4.21568632
1475.38085938	4.21568632
1475.38513184	4.23529434
1475.38916016	4.23529434
1475.39318848	4.23529434
1475.39733887	4.25490189
1475.39733887	4.27450991
1475.40148926	4.27450991
1475.40551758	4.27450991
1475.40966797	4.27450991
1475.40966797	4.27450991
1475.41369629	4.25490189
1475.41772461	4.27450991
1475.42199707	4.27450991
1475.42199707	4.27450991
1475.42602539	4.27450991
1475.43005371	4.27450991
1475.43408203	4.27450991
1475.43823242	4.27450991
1475.44238281	4.27450991
1475.44238281	4.27450991
1475.44653320	4.27450991
1475.45056152	4.27450991
1475.45458984	4.27450991
1475.45458984	4.29411745
1475.45874023	4.31372547
1475.46301270	4.31372547
1475.46704102	4.35294104
1475.46704102	4.33333349
1475.47119141	4.29411745
1475.47521973	4.29411745
1475.47924805	4.29411745
1475.48339844	4.31372547
1475.48742676	4.31372547
1475.48742676	4.31372547
1475.49145508	4.33333349
1475.49560547	4.33333349
1475.49975586	4.33333349
1475.49975586	4.33333349
1475.50366211	4.31372547
1475.50793457	4.27450991
1475.51220703	4.17647076
1475.51220703	3.33333325
1475.51611328	2.84313726
1475.52026367	2.84313726
1475.52026367	2.84313726
1475.52429199	2.84313726
1475.52844238	2.84313726
1475.53259277	2.84313726
1475.53259277	2.82352948
1475.53662109	2.82352948
1475.54064941	2.80392146
1475.54479980	2.82352948
1475.54479980	3.13725495
1475.54895020	3.64705873
1475.55297852	4.29411745
1475.55712891	4.29411745
1475.55712891	4.29411745
1475.56115723	4.29411745
1475.56530762	4.31372547
1475.56530762	4.31372547
1475.56945801	4.31372547
1475.57336426	4.31372547
1475.57751465	4.31372547
1475.57751465	4.31372547
1475.58166504	4.31372547
1475.58569336	4.31372547
1475.58996582	4.31372547
1475.58996582	4.31372547
1475.59399414	4.31372547
1475.59826660	4.31372547
1475.60217285	4.29411745
1475.60217285	4.31372547
1475.60632324	4.31372547
1475.61047363	4.31372547
1475.61047363	4.31372547
1475.61437988	4.29411745
1475.61853027	4.29411745
1475.62268066	4.29411745
1475.62268066	4.29411745
1475.62683105	4.29411745
1475.63073730	4.29411745
1475.63488770	4.29411745
1475.63488770	4.29411745
1475.63903809	4.29411745
1475.64318848	4.29411745
1475.64721680	4.31372547
1475.64721680	4.31372547
1475.65124512	4.31372547
1475.65539551	4.31372547
1475.65539551	4.29411745
1475.65942383	4.29411745
1475.66357422	4.29411745
1475.66760254	4.29411745
1475.66760254	4.29411745
1475.67175293	4.29411745
1475.67578125	4.29411745
1475.68005371	4.29411745
1475.68005371	4.29411745
1475.68408203	4.29411745
1475.68811035	4.29411745
1475.69226074	4.29411745
1475.69226074	4.29411745
1475.69641113	4.29411745
1475.70056152	4.29411745
1475.70056152	4.29411745
1475.70446777	4.29411745
1475.70861816	4.29411745
1475.71276855	4.27450991
1475.71276855	4.27450991
1475.71691895	4.29411745
1475.72094727	4.29411745
1475.72521973	4.29411745
1475.72521973	4.29411745
1475.72912598	4.29411745
1475.73327637	4.29411745
1475.73718262	4.29411745
1475.74133301	4.29411745
1475.74548340	4.29411745
1475.74548340	4.27450991
1475.74963379	4.29411745
1475.75366211	4.27450991
1475.75781250	4.27450991
1475.75781250	4.27450991
1475.76184082	4.27450991
1475.76599121	4.25490189
1475.77014160	4.27450991
1475.77014160	4.27450991
1475.77416992	4.27450991
1475.77819824	4.27450991
1475.78234863	4.27450991
1475.78649902	4.27450991
1475.79052734	4.27450991
1475.79052734	4.27450991
1475.79455566	4.25490189
1475.79870605	4.25490189
1475.80285645	4.27450991
1475.80285645	4.27450991
1475.80700684	4.27450991
1475.81115723	4.25490189
1475.81506348	4.27450991
1475.81506348	4.27450991
1475.81921387	4.27450991
1475.82348633	4.25490189
1475.82739258	4.27450991
1475.83154297	4.27450991
1475.83569336	4.27450991
1475.83569336	4.25490189
1475.83984375	4.27450991
1475.84399414	4.27450991
1475.84790039	4.27450991
1475.84790039	4.27450991
1475.85205078	4.27450991
1475.85607910	4.27450991
1475.86035156	4.27450991
1475.86035156	4.27450991
1475.86425781	4.27450991
1475.86840820	4.27450991
1475.87255859	4.27450991
1475.87670898	4.27450991
1475.88085938	4.27450991
1475.88085938	4.29411745
1475.88476563	4.27450991
1475.88891602	4.27450991
1475.89306641	4.27450991
1475.89306641	4.27450991
1475.89721680	4.27450991
1475.90124512	4.27450991
1475.90527344	4.27450991
1475.90527344	4.27450991
1475.90942383	4.27450991
1475.91357422	4.27450991
1475.91748047	4.27450991
1475.92163086	4.27450991
1475.92578125	4.27450991
1475.92578125	4.27450991
1475.92993164	4.27450991
1475.93383789	4.27450991
1475.93823242	4.25490189
1475.93823242	4.25490189
1475.94226074	4.27450991
1475.94628906	4.27450991
1475.95043945	4.27450991
1475.95043945	4.27450991
1475.95446777	4.27450991
1475.95849609	4.25490189
1475.96264648	4.25490189
1475.96679688	4.25490189
1475.97094727	4.23529434
1475.97094727	4.21568632
1475.97485352	4.23529434
1475.97900391	4.23529434
1475.98315430	4.23529434
1475.98315430	4.23529434
1475.98718262	4.23529434
1475.99133301	4.23529434
1475.99536133	4.23529434
1475.99536133	4.23529434
1475.99951172	4.21568632
1476.00366211	4.23529434
1476.00366211	4.23529434
1476.00769043	4.25490189
1476.01184082	4.25490189
1476.01586914	4.25490189
1476.01586914	4.23529434
1476.02001953	4.23529434
1476.02416992	4.25490189
1476.02819824	4.27450991
1476.02819824	4.29411745
1476.03222656	4.29411745
1476.03637695	4.29411745
1476.04052734	4.29411745
1476.04052734	4.29411745
1476.04455566	4.29411745
1476.04870605	4.27450991
1476.04870605	4.21568632
1476.05273438	4.05882359
1476.05688477	2.84313726
1476.06091309	2.84313726
1476.06091309	2.84313726
1476.06506348	2.84313726
1476.06909180	2.84313726
1476.07324219	2.84313726
1476.07324219	2.84313726
1476.07739258	2.82352948
1476.08142090	2.84313726
1476.08544922	2.82352948
1476.08544922	2.78431368
1476.08959961	2.90196085
1476.09375000	3.25490189
1476.09375000	3.68627453
1476.09765625	4.27450991
1476.10180664	4.29411745
1476.10607910	4.29411745
1476.10607910	4.29411745
1476.11010742	4.27450991
1476.11425781	4.27450991
1476.11828613	4.29411745
1476.11828613	4.29411745
1476.12243652	4.29411745
1476.12646484	4.29411745
1476.13061523	4.29411745
1476.13061523	4.29411745
1476.13464355	4.29411745
1476.13879395	4.29411745
1476.13879395	4.29411745
1476.14294434	4.27450991
1476.14697266	4.29411745
1476.15112305	4.27450991
1476.15112305	4.27450991
1476.15515137	4.27450991
1476.15930176	4.27450991
1476.16345215	4.27450991
1476.16345215	4.25490189
1476.16748047	4.27450991
1476.17150879	4.27450991
1476.17565918	4.27450991
1476.17565918	4.25490189
1476.17968750	4.25490189
1476.18383789	4.23529434
1476.18383789	4.27450991
1476.18786621	4.25490189
1476.19213867	4.25490189
1476.19616699	4.25490189
1476.19616699	4.25490189
1476.20031738	4.27450991
1476.20422363	4.27450991
1476.20837402	4.27450991
1476.20837402	4.29411745
1476.21252441	4.29411745
1476.21667480	4.27450991
1476.22082520	4.27450991
1476.22485352	4.29411745
1476.22888184	4.29411745
1476.22888184	4.29411745
1476.23303223	4.29411745
1476.23718262	4.27450991
1476.24121094	4.29411745
1476.24121094	4.29411745
1476.24523926	4.27450991
1476.24938965	4.29411745
1476.25354004	4.27450991
1476.25354004	4.27450991
1476.25769043	4.27450991
1476.26171875	4.27450991
1476.26574707	4.29411745
1476.26989746	4.27450991
1476.27404785	4.27450991
1476.27404785	4.27450991
1476.27807617	4.25490189
1476.28222656	4.27450991
1476.28625488	4.27450991
1476.28625488	4.27450991
1476.29040527	4.25490189
1476.29443359	4.25490189
1476.29846191	4.25490189
1476.29846191	4.27450991
1476.30261230	4.27450991
1476.30676270	4.25490189
1476.31091309	4.21568632
1476.31494141	4.21568632
1476.31909180	4.23529434
1476.31909180	4.21568632
1476.32312012	4.23529434
1476.32727051	4.21568632
1476.33142090	4.19607830
1476.33142090	4.15686274
1476.33532715	4.15686274
1476.33947754	4.11764717
1476.34362793	4.13725471
1476.34362793	4.17647076
1476.34777832	4.19607830
1476.35180664	4.17647076
1476.35583496	4.21568632
1476.35998535	4.21568632
1476.36413574	4.17647076
1476.36413574	4.09803915
1476.36816406	3.45098042
1476.37231445	2.84313726
1476.37658691	2.82352948
1476.37658691	2.84313726
1476.38061523	2.82352948
1476.38452148	2.80392146
1476.38867188	2.82352948
1476.38867188	2.96078420
1476.39282227	3.17647052
1476.39697266	3.15686274
1476.40112305	2.90196085
1476.40515137	2.82352948
1476.40917969	2.80392146
1476.40917969	2.80392146
1476.41333008	2.80392146
1476.41735840	2.82352948
1476.42150879	2.78431368
1476.42150879	2.78431368
1476.42565918	2.80392146
1476.42968750	2.82352948
1476.43371582	2.82352948
1476.43371582	2.78431368
1476.43786621	2.80392146
1476.44189453	2.84313726
1476.44628906	3.00000000
1476.45019531	3.07843137
1476.45434570	3.03921580
1476.45434570	3.07843137
1476.45825195	3.13725495
1476.46240234	3.17647052
1476.46655273	3.27450991
1476.46655273	3.31372547
1476.47070313	3.39215684
1476.47460938	3.39215684
1476.47875977	3.33333325
1476.47875977	3.31372547
1476.48291016	3.29411769
1476.48706055	3.29411769
1476.48706055	3.27450991
1476.49121094	3.21568632
1476.49511719	3.15686274
1476.49926758	3.15686274
1476.49926758	3.21568632
1476.50341797	3.19607854
1476.50744629	3.19607854
1476.51159668	3.29411769
1476.51159668	3.25490189
1476.51562500	3.23529410
1476.51977539	3.21568632
1476.52392578	3.11764717
1476.52392578	3.05882359
1476.52807617	3.03921580
1476.53210449	3.07843137
1476.53210449	3.11764717
1476.53613281	3.09803915
1476.54016113	3.07843137
1476.54431152	3.07843137
1476.54431152	3.01960778
1476.54833984	2.94117641
1476.55249023	2.92156863
1476.55664063	2.86274505
1476.55664063	2.94117641
1476.56079102	2.96078420
1476.56481934	3.05882359
1476.56884766	3.31372547
1476.56884766	3.76470590
1476.57299805	4.29411745
1476.57714844	4.29411745
1476.57714844	4.27450991
1476.58129883	4.27450991
1476.58520508	4.27450991
1476.58935547	4.21568632
1476.58935547	4.11764717
1476.59350586	3.35294127
1476.59765625	2.84313726
1476.60168457	2.84313726
1476.60168457	2.84313726
1476.60571289	2.84313726
1476.60986328	2.84313726
1476.61389160	2.84313726
1476.61389160	2.84313726
1476.61816406	2.84313726
1476.62219238	2.82352948
1476.62219238	2.82352948
1476.62634277	2.86274505
1476.63037109	2.98039222
1476.63452148	3.25490189
1476.63452148	3.62745094
1476.63854980	4.27450991
1476.64257813	4.29411745
1476.64672852	4.29411745
1476.64672852	4.29411745
1476.65087891	4.29411745
1476.65515137	4.29411745
1476.65917969	4.29411745
1476.66308594	4.27450991
1476.66723633	4.27450991
1476.66723633	4.29411745
1476.67138672	4.27450991
1476.67529297	4.27450991
1476.67944336	4.27450991
1476.67944336	4.27450991
1476.68359375	4.27450991
1476.68774414	4.27450991
1476.69189453	4.27450991
1476.69189453	4.27450991
1476.69592285	4.27450991
1476.70007324	4.27450991
1476.70410156	4.25490189
1476.70825195	4.27450991
1476.71228027	4.25490189
1476.71228027	4.25490189
1476.71643066	4.27450991
1476.72058105	4.25490189
1476.72473145	4.25490189
1476.72473145	4.27450991
1476.72863770	4.27450991
1476.73278809	4.25490189
1476.73681641	4.25490189
1476.73681641	4.23529434
1476.74108887	4.23529434
1476.74511719	4.23529434
1476.74914551	4.27450991
1476.75317383	4.23529434
1476.75732422	4.25490189
1476.75732422	4.25490189
1476.76135254	4.25490189
1476.76550293	4.25490189
1476.76965332	4.23529434
1476.76965332	4.23529434
1476.77368164	4.25490189
1476.77783203	4.25490189
1476.78210449	4.25490189
1476.78210449	4.27450991
1476.78613281	4.25490189
1476.79016113	4.25490189
1476.79431152	4.25490189
1476.79821777	4.23529434
1476.80236816	4.23529434
1476.80236816	4.23529434
1476.80651855	4.23529434
1476.81054688	4.23529434
1476.81469727	4.23529434
1476.81469727	4.23529434
1476.81872559	4.21568632
1476.82287598	4.21568632
1476.82702637	4.21568632
1476.82702637	4.19607830
1476.83117676	4.19607830
1476.83520508	4.21568632
1476.83923340	4.23529434
1476.84338379	4.19607830
1476.84753418	4.17647076
1476.84753418	4.19607830
1476.85168457	4.17647076
1476.85559082	4.17647076
1476.85974121	4.19607830
1476.85974121	4.17647076
1476.86389160	4.15686274
1476.86804199	4.17647076
1476.87207031	4.17647076
1476.87207031	4.17647076
1476.87609863	4.17647076
1476.88024902	4.15686274
1476.88439941	4.15686274
1476.88842773	4.15686274
1476.89245605	4.17647076
1476.89245605	4.19607830
1476.89660645	4.19607830
1476.90075684	4.19607830
1476.90490723	4.19607830
1476.90490723	4.17647076
1476.90893555	4.17647076
1476.91320801	4.17647076
1476.91711426	4.17647076
1476.91711426	4.17647076
1476.92126465	4.17647076
1476.92541504	4.15686274
1476.92932129	4.15686274
1476.93347168	4.19607830
1476.93762207	4.19607830
1476.93762207	4.19607830
1476.94177246	4.19607830
1476.94580078	4.19607830
1476.94982910	4.19607830
1476.94982910	4.21568632
1476.95397949	4.21568632
1476.95812988	4.21568632
1476.96228027	4.21568632
1476.96228027	4.21568632
1476.96630859	4.21568632
1476.97045898	4.21568632
1476.97045898	4.21568632
1476.97448730	4.17647076
1476.97863770	4.19607830
1476.98266602	4.19607830
1476.98266602	4.19607830
1476.98681641	4.21568632
1476.99084473	4.23529434
1476.99499512	4.23529434
1476.99499512	4.23529434
1476.99902344	4.23529434
1477.00305176	4.25490189
1477.00720215	4.25490189
1477.00720215	4.25490189
1477.01135254	4.25490189
1477.01562500	4.25490189
1477.01562500	4.25490189
1477.01953125	4.25490189
1477.02368164	4.23529434
1477.02770996	4.21568632
1477.02770996	4.23529434
1477.03186035	4.23529434
1477.03588867	4.23529434
1477.04016113	4.23529434
1477.04016113	4.23529434
1477.04406738	4.21568632
1477.04821777	4.21568632
1477.05236816	4.21568632
1477.05236816	4.21568632
1477.05639648	4.21568632
1477.06054688	4.21568632
1477.06054688	4.19607830
1477.06469727	4.17647076
1477.06872559	4.15686274
1477.07275391	3.94117641
1477.07275391	3.05882359
1477.07690430	2.80392146
1477.08105469	2.82352948
1477.08508301	2.80392146
1477.08508301	2.94117641
1477.08911133	3.74509811
1477.09350586	4.37254906
1477.09741211	4.35294104
1477.09741211	4.27450991
1477.10156250	4.17647076
1477.10571289	4.13725471
1477.10571289	4.19607830
1477.10949707	4.27450991
1477.11376953	4.29411745
1477.11779785	4.27450991
1477.11779785	4.27450991
1477.12194824	4.21568632
1477.12609863	4.19607830
1477.13012695	4.21568632
1477.13012695	4.21568632
1477.13427734	4.11764717
1477.13842773	3.37254906
1477.14233398	2.84313726
1477.14648438	2.86274505
1477.15063477	2.84313726
1477.15063477	2.84313726
1477.15478516	2.84313726
1477.15881348	2.84313726
1477.16284180	2.84313726
1477.16284180	2.84313726
1477.16687012	2.84313726
1477.17114258	2.84313726
1477.17517090	2.80392146
1477.17517090	2.94117641
1477.17919922	3.15686274
1477.18334961	3.49019599
1477.18750000	4.27450991
1477.19165039	4.27450991
1477.19580078	4.27450991
1477.19580078	4.27450991
1477.19970703	4.27450991
1477.20385742	4.29411745
1477.20800781	4.29411745
1477.20800781	4.31372547
1477.21215820	4.29411745
1477.21618652	4.29411745
1477.22033691	4.29411745
1477.22033691	4.27450991
1477.22436523	4.29411745
1477.22851563	4.29411745
1477.23254395	4.27450991
1477.23657227	4.27450991
1477.24072266	4.25490189
1477.24072266	4.25490189
1477.24487305	4.21568632
1477.24890137	4.21568632
1477.25317383	4.19607830
1477.25317383	4.21568632
1477.25720215	4.25490189
1477.26123047	4.21568632
1477.26538086	4.19607830
1477.26538086	4.21568632
1477.26940918	4.21568632
1477.27343750	4.25490189
1477.27758789	4.27450991
1477.28173828	4.27450991
1477.28588867	4.27450991
1477.28588867	4.29411745
1477.28979492	4.29411745
1477.29394531	4.29411745
1477.29821777	4.29411745
1477.29821777	4.29411745
1477.30212402	4.29411745
1477.30627441	4.29411745
1477.31042480	4.29411745
1477.31042480	4.29411745
1477.31457520	4.29411745
1477.31872559	4.29411745
1477.32263184	4.29411745
1477.32678223	4.29411745
1477.33093262	4.29411745
1477.33093262	4.31372547
1477.33508301	4.31372547
1477.33923340	4.29411745
1477.34313965	4.31372547
1477.34313965	4.31372547
1477.34729004	4.31372547
1477.35144043	4.31372547
1477.35546875	4.29411745
1477.35546875	4.29411745
1477.35949707	4.31372547
1477.36364746	4.31372547
1477.36779785	4.33333349
1477.37182617	4.31372547
1477.37597656	4.31372547
1477.37597656	4.31372547
1477.38012695	4.31372547
1477.38403320	4.29411745
1477.38830566	4.29411745
1477.38830566	4.29411745
1477.39233398	4.29411745
1477.39636230	4.29411745
1477.40051270	4.29411745
1477.40051270	4.27450991
1477.40466309	4.29411745
1477.40869141	4.29411745
1477.41284180	4.27450991
1477.41687012	4.27450991
1477.42102051	4.27450991
1477.42102051	4.27450991
1477.42517090	4.25490189
1477.42919922	4.25490189
1477.43322754	4.25490189
1477.43322754	4.25490189
1477.43737793	4.25490189
1477.44140625	4.23529434
1477.44555664	4.21568632
1477.44555664	4.23529434
1477.44958496	4.25490189
1477.45373535	4.27450991
1477.45373535	4.27450991
1477.45788574	4.27450991
1477.46203613	4.27450991
1477.46618652	4.27450991
1477.46618652	4.25490189
1477.47021484	4.25490189
1477.47436523	4.23529434
1477.47839355	4.21568632
1477.47839355	4.21568632
1477.48242188	4.21568632
1477.48645020	4.21568632
1477.49072266	4.23529434
1477.49072266	4.23529434
1477.49475098	4.23529434
1477.49890137	4.25490189
1477.49890137	4.25490189
1477.50280762	4.25490189
1477.50708008	4.25490189
1477.51110840	4.25490189
1477.51110840	4.25490189
1477.51525879	4.25490189
1477.51916504	4.25490189
1477.52331543	4.25490189
1477.52331543	4.25490189
1477.52746582	4.25490189
1477.53161621	4.25490189
1477.53576660	4.25490189
1477.53576660	4.27450991
1477.53979492	4.25490189
1477.54394531	4.23529434
1477.54394531	4.23529434
1477.54797363	4.23529434
1477.55212402	4.23529434
1477.55627441	4.25490189
1477.55627441	4.25490189
1477.56018066	4.25490189
1477.56433105	4.27450991
1477.56848145	4.27450991
1477.56848145	4.27450991
1477.57250977	4.27450991
1477.57653809	4.25490189
1477.58081055	4.27450991
1477.58081055	4.27450991
1477.58483887	4.27450991
1477.58898926	4.27450991
1477.58898926	4.27450991
1477.59313965	4.27450991
1477.59716797	4.27450991
1477.60131836	4.25490189
1477.60131836	4.25490189
1477.60534668	4.25490189
1477.60937500	4.25490189
1477.61352539	4.27450991
1477.61352539	4.27450991
1477.61767578	4.25490189
1477.62170410	4.25490189
1477.62585449	4.27450991
1477.62988281	4.25490189
1477.63415527	4.27450991
1477.63415527	4.27450991
1477.63806152	4.27450991
1477.64221191	4.27450991
1477.64636230	4.27450991
1477.64636230	4.27450991
1477.65039063	4.27450991
1477.65454102	4.27450991
1477.65869141	4.27450991
1477.65869141	4.27450991
1477.66271973	4.25490189
